,# t (s),mx (),my (),mz (),MaxAngle (rad),phi (degree),f_RF (GHz)
189001,9.450057195270487e-07,-0.967566,0.21396549,-0.0053643319999999994,0.0740475,175,3000000000.0
189002,9.450101417759148e-07,-0.9683463999999999,0.21003225,-0.0070201000000000005,0.07416343,175,3000000000.0
189003,9.450160285737423e-07,-0.9696372,0.20333576,-0.008937397,0.07433057,175,3000000000.0
189004,9.450204399951143e-07,-0.97074676,0.19737002,-0.010144764,0.074450865,175,3000000000.0
189005,9.450263168907059e-07,-0.9723446,0.18839097,-0.011431086000000002,0.074590966,175,3000000000.0
189006,9.450307208149059e-07,-0.97358656,0.1810547,-0.012146083,0.07468368,175,3000000000.0
189007,9.450351222373324e-07,-0.9748298000000001,0.173348,-0.012644265,0.07476911,175,3000000000.0
189008,9.450409890693874e-07,-0.9764421,0.16272292,-0.012972502,0.07486480000000001,175,3000000000.0
189009,9.450453866534966e-07,-0.97758716,0.15466635,-0.012971433000000001,0.07492773,175,3000000000.0
189010,9.450512470049272e-07,-0.9789952,0.14405291,-0.012653891,0.07499697,175,3000000000.0
189011,9.450556420571871e-07,-0.9799479,0.13634607,-0.012191753,0.07504071,175,3000000000.0
189012,9.450600362458893e-07,-0.98080486,0.12898694,-0.011552038999999998,0.07507330000000001,175,3000000000.0
189013,9.450658939878685e-07,-0.98179585,0.1198989,-0.010449919,0.07510429,175,3000000000.0
189014,9.450702865407104e-07,-0.98242795,0.11374878,-0.009459588,0.075119376,175,3000000000.0
189015,9.450761436987774e-07,-0.98313236,0.10658891,-0.007958168,0.07514002,175,3000000000.0
189016,9.450805350377281e-07,-0.9835649999999999,0.10208673,-0.0067245844,0.07515432,175,3000000000.0
189017,9.450863883769531e-07,-0.9840280999999999,0.09733399,-0.0049791834,0.07516464,175,3000000000.0
189018,9.450907789731813e-07,-0.9842987,0.094747804,-0.0036240105999999998,0.07516464,175,3000000000.0
189019,9.450951695050727e-07,-0.98450965,0.093019456,-0.0022552696,0.07515908,175,3000000000.0
189020,9.451010231669123e-07,-0.9847041,0.09204894,-0.0004488568799999999,0.07514320000000001,175,3000000000.0
189021,9.451054132796007e-07,-0.98478746,0.09230096,0.0008632892999999999,0.07512573,175,3000000000.0
189022,9.45111267897776e-07,-0.9848155000000001,0.09388344,0.002516336,0.075097136,175,3000000000.0
189023,9.451156578135395e-07,-0.9847723,0.095943995,0.00365803,0.07507013,175,3000000000.0
189024,9.451200475785991e-07,-0.98467153,0.09868728,0.004696287,0.07504151,175,3000000000.0
189025,9.451258991136593e-07,-0.9844434000000001,0.10328198,0.0058929659999999995,0.07500731,175,3000000000.0
189026,9.451302886025959e-07,-0.98419994,0.107326716,0.0066332817,0.07498822,175,3000000000.0
189027,9.451361410856186e-07,-0.98377746,0.11334622,0.007391022,0.07697404,175,3000000000.0
189028,9.451405305097187e-07,-0.9833895,0.11820613599999999,0.0077778464,0.07887068400000001,175,3000000000.0
189029,9.451463843834308e-07,-0.9827855,0.12495719999999999,0.008043483,0.08026623,175,3000000000.0
189030,9.451507738628992e-07,-0.98227704,0.13008928,0.008053441,0.08313007,175,3000000000.0
189031,9.451551633028587e-07,-0.9817318000000002,0.13516824,0.007903015,0.08534108,175,3000000000.0
189032,9.451610145495796e-07,-0.9809699000000001,0.14168508,0.007461026999999999,0.08823741,175,3000000000.0
189033,9.451654038861363e-07,-0.9803913000000001,0.14626096,0.006957673,0.08911975,175,3000000000.0
189034,9.451712560803798e-07,-0.97964144,0.15177776,0.006076191999999999,0.08945464,175,3000000000.0
189035,9.4517564556573e-07,-0.9791175,0.15537451,0.0052730767000000005,0.09095661,175,3000000000.0
189036,9.451800348316378e-07,-0.97864485,0.15842915,0.004364068,0.09094545,175,3000000000.0
189037,9.451858886688763e-07,-0.9781216,0.16155747,0.0030144574,0.09084498,175,3000000000.0
189038,9.451902780002596e-07,-0.9778266999999999,0.1631322,0.0019219203,0.09065228,175,3000000000.0
189039,9.451961296521523e-07,-0.9775828999999999,0.16413757,0.00039282689,0.08983082,175,3000000000.0
189040,9.452005189570118e-07,-0.97752047,0.16404338,-0.00078395853,0.08886422,175,3000000000.0
189041,9.45206370982522e-07,-0.97760254,0.16277184,-0.0023560238,0.08768715,175,3000000000.0
189042,9.452107603117209e-07,-0.97778517,0.16096635,-0.0035126455999999998,0.08622113599999999,175,3000000000.0
189043,9.452151498007436e-07,-0.9780651,0.15845120000000001,-0.0046292,0.08521932,175,3000000000.0
189044,9.452210037798763e-07,-0.9785731,0.15404722,-0.0060249073,0.08338594,175,3000000000.0
189045,9.452253930626025e-07,-0.97903866,0.15001409,-0.0069796066,0.08289716400000001,175,3000000000.0
189046,9.452312444102328e-07,-0.9797439,0.14376709,-0.008100888,0.08456486,175,3000000000.0
189047,9.452356338301296e-07,-0.9803152,0.13851242,-0.0088109225,0.08397497,175,3000000000.0
189048,9.452400232188858e-07,-0.9809046,0.13285239999999998,-0.009395685,0.082224265,175,3000000000.0
189049,9.452458753305874e-07,-0.98169076,0.12481658,-0.00996438,0.07937819,175,3000000000.0
189050,9.452502646766504e-07,-0.9822622,0.11853506400000001,-0.010223613000000001,0.077221684,175,3000000000.0
189051,9.452561185872184e-07,-0.9829767,0.109992504,-0.010337715,0.07650757,175,3000000000.0
189052,9.45260507863768e-07,-0.9834648000000001,0.10358531,-0.010247302,0.07680489,175,3000000000.0
189053,9.452663593286831e-07,-0.98404026,0.095220536,-0.009893991,0.07645062,175,3000000000.0
189054,9.452707485458004e-07,-0.9844116,0.08919904,-0.009458995,0.07498504,175,3000000000.0
189055,9.452751378252916e-07,-0.98473114,0.083493955,-0.008884907,0.074486114,175,3000000000.0
189056,9.452809895194628e-07,-0.98508066,0.07652612,-0.00791772,0.07640769,175,3000000000.0
189057,9.452853786510453e-07,-0.9852908000000001,0.07187939,-0.0070544486,0.07670928,175,3000000000.0
189058,9.452912322939684e-07,-0.9855117,0.06658742,-0.0057429816000000005,0.07628578,175,3000000000.0
189059,9.452956214183537e-07,-0.9856404000000001,0.06337547,-0.0046579377,0.075035945,175,3000000000.0
189060,9.453000105134107e-07,-0.9857435999999999,0.06086649,-0.0035029735999999997,0.075028785,175,3000000000.0
189061,9.453058618272071e-07,-0.98584867,0.058679946,-0.0018831593,0.07570167,175,3000000000.0
189062,9.453102509278902e-07,-0.9859071,0.05794254,-0.00063047436,0.07613155,175,3000000000.0
189063,9.453161024681619e-07,-0.98595864,0.058188234000000005,0.0010561672999999999,0.07697327,175,3000000000.0
189064,9.453204915961187e-07,-0.9859761,0.059294593,0.002310701,0.07764701,175,3000000000.0
189065,9.453263452873873e-07,-0.98596346,0.061976052999999996,0.0039365413,0.07816015,175,3000000000.0
189066,9.453307345052422e-07,-0.98592013,0.06485811,0.0050983527,0.07955913,175,3000000000.0
189067,9.453351237616024e-07,-0.98584014,0.068446435,0.0061933678,0.07993997,175,3000000000.0
189068,9.453409753101648e-07,-0.9856627,0.07424576599999999,0.007523851999999999,0.081722714,175,3000000000.0
189069,9.453453645179179e-07,-0.98546654,0.07928288,0.008407524,0.08342243,175,3000000000.0
189070,9.453512160598192e-07,-0.9851075,0.08678689999999999,0.009411087,0.0851822,175,3000000000.0
189071,9.45355605276552e-07,-0.98475796,0.09291017,0.010020326999999999,0.08624675,175,3000000000.0
189072,9.453614591389324e-07,-0.9841785,0.101581685,0.010626806,0.085838914,175,3000000000.0
189073,9.453658483326124e-07,-0.98365855,0.10835038,0.010919924,0.08657204,175,3000000000.0
189074,9.453702375985216e-07,-0.9830684000000001,0.11524885,0.011070773,0.08750865,175,3000000000.0
189075,9.453760892687441e-07,-0.9821833000000001,0.124490954,0.011048733,0.08748546,175,3000000000.0
189076,9.453804785454056e-07,-0.9814579,0.13134032,0.010866178999999998,0.08761566,175,3000000000.0
189077,9.453863301233984e-07,-0.9804328000000001,0.14019333,0.010407751,0.08854261,175,3000000000.0
189078,9.453907194642124e-07,-0.9796405,0.14651585,0.009909659,0.08862548,175,3000000000.0
189079,9.453951087640928e-07,-0.97884715,0.152477,0.009287569,0.087554336,175,3000000000.0
189080,9.454009626730114e-07,-0.9778203000000001,0.15973864,0.008280948,0.08778987,175,3000000000.0
189081,9.454053520051212e-07,-0.9770981,0.1645818,0.007407541,0.087683074,175,3000000000.0
189082,9.454112036255301e-07,-0.9762344000000001,0.17012799,0.0061084534999999995,0.08726074,175,3000000000.0
189083,9.454155929408899e-07,-0.9756823,0.17354374,0.005050501,0.08590702,175,3000000000.0
189084,9.4542144423678e-07,-0.97510195,0.17703414,0.0035563693,0.08495842,175,3000000000.0
189085,9.454258334138515e-07,-0.9747978,0.17882062,0.0023923488,0.08489236,175,3000000000.0
189086,9.454302225672651e-07,-0.97461516,0.1798759,0.0012084626,0.08384412,175,3000000000.0
189087,9.454360764864885e-07,-0.97456706,0.18013598,-0.00037454467,0.083353005,175,3000000000.0
189088,9.454404656930895e-07,-0.9746775,0.17947674,-0.0015445810999999998,0.08562242,175,3000000000.0
189089,9.45446317364629e-07,-0.97501206,0.1774881,-0.0030537194,0.08784899,175,3000000000.0
189090,9.454507067101155e-07,-0.9753931,0.17519692,-0.004129389,0.08873518,175,3000000000.0
189091,9.454550961259912e-07,-0.9758735000000001,0.17225833,-0.0051421695,0.08879973,175,3000000000.0
189092,9.454609474059583e-07,-0.9766440999999999,0.16740906,-0.0063738404000000005,0.08743292,175,3000000000.0
189093,9.454653366523693e-07,-0.9772997,0.16313791,-0.007195224,0.08524662,175,3000000000.0
189094,9.454711906892613e-07,-0.9782455,0.15670606,-0.008136853000000001,0.08178767,175,3000000000.0
189095,9.454755801199531e-07,-0.9789859000000001,0.15141466,-0.008718128,0.084058784,175,3000000000.0
189096,9.454814320067577e-07,-0.97998315,0.14386588,-0.009316484,0.08644028,175,3000000000.0
189097,9.454858213980028e-07,-0.980719,0.13792627,-0.0096282875,0.08760545,175,3000000000.0
189098,9.454902107350187e-07,-0.98142916,0.13183121,-0.009820705,0.088133864,175,3000000000.0
189099,9.454960621846779e-07,-0.9823164000000001,0.12359357,-0.009891824,0.08773955,175,3000000000.0
189100,9.455004516347915e-07,-0.98292595,0.117426395,-0.009808505,0.08658445,175,3000000000.0
189101,9.45506305620248e-07,-0.9836521,0.109356,-0.009521940999999999,0.08392948,175,3000000000.0
189102,9.45510695046822e-07,-0.9841274,0.103510566,-0.009182306999999999,0.08117765,175,3000000000.0
189103,9.455150844522499e-07,-0.9845419,0.097914375,-0.00874311,0.07787643,175,3000000000.0
189104,9.455209365764231e-07,-0.9850019,0.090944774,-0.008016420500000001,0.07308164,175,3000000000.0
189105,9.455253258726614e-07,-0.9852806000000001,0.0861562,-0.0073771806999999995,0.073116735,175,3000000000.0
189106,9.455311769819956e-07,-0.98557144,0.08044727,-0.0064183627,0.07316894,175,3000000000.0
189107,9.45535566028594e-07,-0.9857351000000001,0.0767218,-0.005632921,0.07320969,175,3000000000.0
189108,9.455414195863571e-07,-0.98589003,0.07255535,-0.0045183087,0.07326345,175,3000000000.0
189109,9.455458087531368e-07,-0.9859653,0.07006203,-0.003647095,0.073305786,175,3000000000.0
189110,9.455501979841845e-07,-0.98601013,0.06812554,-0.0027583209999999998,0.073346466,175,3000000000.0
189111,9.455560500684915e-07,-0.98602915,0.06642017,-0.0015658053,0.073400125,175,3000000000.0
189112,9.455604391923031e-07,-0.9860165999999999,0.06579613,-0.0006802257,0.07343913,175,3000000000.0
189113,9.45566290266977e-07,-0.98596776,0.06581841,0.0004682722,0.073491104,175,3000000000.0
189114,9.455706794263832e-07,-0.98590857,0.06645298,0.0012927633999999999,0.07352924,175,3000000000.0
189115,9.455750686492832e-07,-0.9858299999999999,0.067590274,0.0020751855,0.0735625,175,3000000000.0
189116,9.455809224404959e-07,-0.9856949,0.06983624,0.0030387638,0.07360305,175,3000000000.0
189117,9.4558531181761e-07,-0.9855699,0.07202040400000001,0.0036918237,0.073631406,175,3000000000.0
189118,9.455911642396108e-07,-0.9853698000000001,0.07552152,0.0044581876,0.07366461,175,3000000000.0
189119,9.45595553645191e-07,-0.98519397,0.07853099,0.0049482943,0.07368325,175,3000000000.0
189120,9.456014050038255e-07,-0.98492455,0.08296324,0.005481877,0.07370672,175,3000000000.0
189121,9.456057944535616e-07,-0.9846963,0.08653899,0.005789353499999999,0.073717244,175,3000000000.0
189122,9.45610183846293e-07,-0.9844469000000001,0.090273395,0.006016134300000001,0.07372452,175,3000000000.0
189123,9.456160375766941e-07,-0.9840843,0.09541269999999999,0.006193526600000001,0.07372938,175,3000000000.0
189124,9.456204269827488e-07,-0.98379356,0.09932089999999999,0.0062347096,0.073727764,175,3000000000.0
189125,9.456262793294628e-07,-0.98338723,0.10451261,0.006172325,0.07371886,175,3000000000.0
189126,9.456306686317741e-07,-0.9830739,0.10833296,0.006042518,0.073709145,175,3000000000.0
189127,9.456350579308764e-07,-0.98275864,0.11204305,0.005846837,0.07369458,175,3000000000.0
189128,9.456409088239174e-07,-0.9823443000000001,0.11675037,0.0054933038,0.07492216,175,3000000000.0
189129,9.456452981277638e-07,-0.98204505,0.12005847,0.005166746,0.07554704,175,3000000000.0
189130,9.456511518015427e-07,-0.98167104,0.124116324,0.0046625733,0.0755731,175,3000000000.0
189131,9.45655541068042e-07,-0.98141557,0.12686229,0.0042425706,0.07533510000000002,175,3000000000.0
189132,9.45661393305996e-07,-0.9811169,0.1300924,0.003641128,0.07529866,175,3000000000.0
189133,9.456657825326763e-07,-0.9809288,0.13217476,0.0031689647999999996,0.07570324,175,3000000000.0
189134,9.456701717478599e-07,-0.9807743,0.13395675,0.0026872640000000004,0.075659096,175,3000000000.0
189135,9.456760226721336e-07,-0.9806236999999999,0.13586095,0.0020432181,0.07500414,175,3000000000.0
189136,9.456804118796214e-07,-0.98055285,0.13693923,0.0015678843,0.07416423400000001,175,3000000000.0
189137,9.456862654073843e-07,-0.9805140999999999,0.13792418,0.0009570585699999999,0.07331474,175,3000000000.0
189138,9.456906547990288e-07,-0.98052466,0.1383386,0.0005241805,0.07326997,175,3000000000.0
189139,9.456950440979143e-07,-0.9805669,0.13849270000000002,0.00011886653,0.07322518,175,3000000000.0
189140,9.457008966757151e-07,-0.9806671999999999,0.13832669,-0.00037077587,0.07316486,175,3000000000.0
189141,9.457052860514305e-07,-0.98077095,0.13795213,-0.00069501705,0.07311918,175,3000000000.0
189142,9.457111369237257e-07,-0.98093975,0.13716602,-0.0010645214,0.073060416,175,3000000000.0
189143,9.457155261225288e-07,-0.9810841999999999,0.13639486,-0.0012922357,0.07301631,175,3000000000.0
189144,9.457213794794615e-07,-0.9812926,0.13517584,-0.0015281587,0.07295991,175,3000000000.0
189145,9.457257686092848e-07,-0.98145556,0.13415422,-0.0016543039,0.07291983,175,3000000000.0
189146,9.457301576240685e-07,-0.9816199000000001,0.13307045,-0.0017379301000000002,0.07288055,175,3000000000.0
189147,9.457360101574379e-07,-0.98183566,0.13157348,-0.0017863314,0.07283060000000001,175,3000000000.0
189148,9.457403992945977e-07,-0.98199093,0.13044374,-0.0017785337,0.07279619,175,3000000000.0
189149,9.457462498701672e-07,-0.9821841,0.12897101,-0.0017154576,0.07275356,175,3000000000.0
189150,9.457506387144201e-07,-0.9823159,0.12791681,-0.0016335596,0.072725676,175,3000000000.0
189151,9.457550277221115e-07,-0.9824344,0.12692493,-0.0015267567999999998,0.07270107,175,3000000000.0
189152,9.457608810204376e-07,-0.98256975,0.12572306,-0.0013536023,0.0726707,175,3000000000.0
189153,9.457652701178328e-07,-0.9826531999999999,0.12492624,-0.0012070497,0.07265264,175,3000000000.0
189154,9.457711226428496e-07,-0.9827388000000001,0.124016024,-0.000998852,0.07263375,175,3000000000.0
189155,9.457755117028124e-07,-0.9827838,0.12345185,-0.0008395983999999999,0.07262143,175,3000000000.0
189156,9.457813623034313e-07,-0.9828183000000001,0.12285695,-0.0006323774,0.07261567599999999,175,3000000000.0
189157,9.457857514463148e-07,-0.9828259,0.12252352400000001,-0.0004866713,0.072617315,175,3000000000.0
189158,9.457901405625536e-07,-0.98281854,0.12227922,-0.00035405242999999995,0.07261979,175,3000000000.0
189159,9.457959937876689e-07,-0.9827878000000001,0.12207501400000001,-0.00020411053,0.072630465,175,3000000000.0
189160,9.458003831066822e-07,-0.9827505,0.121997155,-0.00011610773000000002,0.07264114,175,3000000000.0
189161,9.458062360039087e-07,-0.9826851999999999,0.12196616,-3.640953e-05,0.07266167,175,3000000000.0
189162,9.458106252540865e-07,-0.982627,0.12197659,-7.4521386e-06,0.07267973,175,3000000000.0
189163,9.45815014599436e-07,-0.9825632,0.12199657400000001,-6.3759317e-06,0.07270189,175,3000000000.0
189164,9.4582086555204e-07,-0.98247355,0.122007035,-4.9317267e-05,0.07273307,175,3000000000.0
189165,9.45825254733198e-07,-0.982406,0.12197917,-0.00011469388,0.07276176,175,3000000000.0
189166,9.458311080138551e-07,-0.9823204,0.1218605,-0.00024454284,0.072802745,175,3000000000.0
189167,9.458354971703378e-07,-0.9822628000000001,0.12168847,-0.00037192047,0.07283552,175,3000000000.0
189168,9.45841350088495e-07,-0.98219925,0.12131878,-0.0005776273,0.07288219,175,3000000000.0
189169,9.458457393737352e-07,-0.98216456,0.120918594,-0.0007551534,0.07291901,175,3000000000.0
189170,9.45850128480343e-07,-0.98214346,0.12040023,-0.0009489449400000001,0.072956644,175,3000000000.0
189171,9.458559793695903e-07,-0.982139,0.119509935,-0.001226093,0.073007315,175,3000000000.0
189172,9.458603684796352e-07,-0.98215526,0.11868449,-0.0014427967000000001,0.073046535,175,3000000000.0
189173,9.458662213166186e-07,-0.9822049,0.11736772,-0.0017351746,0.07310041,175,3000000000.0
189174,9.45870610417672e-07,-0.98226357,0.116218545,-0.0019510795,0.07314121,175,3000000000.0
189175,9.45876463444722e-07,-0.98237044,0.11447722,-0.002225737,0.07319339,175,3000000000.0
189176,9.458808527771543e-07,-0.9824712,0.113023855,-0.002415828,0.07323169,175,3000000000.0
189177,9.458852421391531e-07,-0.98258877,0.111455254,-0.0025873706,0.073271595,175,3000000000.0
189178,9.45891093164126e-07,-0.98276895,0.10920814,-0.0027799462,0.0733188,175,3000000000.0
189179,9.458954825046608e-07,-0.9829194,0.10742605,-0.002892318,0.07335459400000001,175,3000000000.0
189180,9.459013355134176e-07,-0.9831370999999999,0.10495692,-0.0029928156,0.07339769,175,3000000000.0
189181,9.459057245552273e-07,-0.98330975,0.103063226,-0.0030273811,0.07342857,175,3000000000.0
189182,9.459101135328139e-07,-0.9834883,0.10115893,-0.0030243315,0.07345537,175,3000000000.0
189183,9.45915966308983e-07,-0.9837309999999999,0.098645434,-0.0029587178000000003,0.07349029,175,3000000000.0
189184,9.45920355413945e-07,-0.9839136,0.09681303,-0.0028619089,0.07351221,175,3000000000.0
189185,9.45926206236272e-07,-0.9841529,0.09448995,-0.0026686396,0.07353655,175,3000000000.0
189186,9.45930595467232e-07,-0.9843267,0.092870794,-0.0024758857,0.07355277,175,3000000000.0
189187,9.45936448437434e-07,-0.98454696,0.09092525,-0.0021571338,0.07356737599999999,175,3000000000.0
189188,9.459408377517584e-07,-0.9847009,0.08965827,-0.0018740936999999999,0.07357467,175,3000000000.0
189189,9.459452270689415e-07,-0.98484325,0.08858161,-0.0015560138,0.07358035,175,3000000000.0
189190,9.459510803161005e-07,-0.98501223,0.08747847,-0.0010826165,0.07358197,175,3000000000.0
189191,9.459554696303744e-07,-0.9851214,0.08692495,-0.0006953922599999999,0.073582776,175,3000000000.0
189192,9.459613203848976e-07,-0.9852405000000001,0.08658204,-0.00014419944999999998,0.0735771,175,3000000000.0
189193,9.459657095511827e-07,-0.98530823,0.08663729,0.00028958445,0.07357143,175,3000000000.0
189194,9.459700988500858e-07,-0.9853559000000001,0.08697065,0.0007352252,0.07355926,175,3000000000.0
189195,9.459759516874228e-07,-0.9853860999999999,0.08785715,0.0013387310000000001,0.07353979,175,3000000000.0
189196,9.459803409245459e-07,-0.98538166,0.08885547,0.0017911601,0.07352276,175,3000000000.0
189197,9.459861940694576e-07,-0.9853371,0.09062674,0.0023836275,0.07349435,175,3000000000.0
189198,9.459905831712948e-07,-0.9852732,0.09227619999999999,0.0028124945,0.07347000000000001,175,3000000000.0
189199,9.459964339288871e-07,-0.9851450999999999,0.09488251,0.0033531892,0.073435076,175,3000000000.0
189200,9.460008231584057e-07,-0.98501575,0.09712428,0.0037286917,0.07340257,175,3000000000.0
189201,9.460052123513883e-07,-0.9848571,0.09959126,0.0040727807000000005,0.07337168,175,3000000000.0
189202,9.460110650565313e-07,-0.9845994,0.10319327,0.004474719,0.073326945,175,3000000000.0
