,# t (s),mx (),my (),mz (),MaxAngle (rad),phi (degree),f_RF (GHz)
210601,1.0530057401214012e-06,-0.96527666,-0.22472765,-0.005379544,0.07353330400000001,195,3000000000.0
210602,1.0530101593899782e-06,-0.9644093,-0.22865207,-0.007038178000000001,0.07341963,195,3000000000.0
210603,1.053016045754225e-06,-0.9628981,-0.23532107,-0.008959196,0.07325531,195,3000000000.0
210604,1.0530204551645898e-06,-0.96151644,-0.24124321,-0.010167902,0.07313958,195,3000000000.0
210605,1.0530263288610004e-06,-0.9593722,-0.25012633,-0.011454893999999998,0.07299996,195,3000000000.0
210606,1.0530307318495301e-06,-0.9575613000000002,-0.2573605,-0.012169919,0.07290756,195,3000000000.0
210607,1.053035132498499e-06,-0.95560074,-0.26493523,-0.0126674045,0.072827324,195,3000000000.0
210608,1.0530409968334944e-06,-0.95280045,-0.27533334,-0.012993411000000002,0.07273962,195,3000000000.0
210609,1.053045393746553e-06,-0.9505993,-0.28318712,-0.0129896905,0.07268301,195,3000000000.0
210610,1.0530512561069431e-06,-0.94759566,-0.2934943,-0.012666668999999998,0.072618134,195,3000000000.0
210611,1.053055650829922e-06,-0.9453411,-0.30094337,-0.012198948999999999,0.07257787,195,3000000000.0
210612,1.0530600442972008e-06,-0.9431292,-0.30802932,-0.011552222,0.072543345,195,3000000000.0
210613,1.0530659011365955e-06,-0.9403155000000001,-0.31674233,-0.010438125,0.07250880000000001,195,3000000000.0
210614,1.0530702935992576e-06,-0.9383579,-0.32261324,-0.009436454,0.07248576,195,3000000000.0
210615,1.0530761479261546e-06,-0.93602234,-0.32941326,-0.007917329,0.07246517400000001,195,3000000000.0
210616,1.05308053940973e-06,-0.93451804,-0.3336685,-0.006667213000000001,0.07245612,195,3000000000.0
210617,1.0530863955938713e-06,-0.9328938,-0.33813116,-0.004895162,0.07244706,195,3000000000.0
210618,1.0530907862774276e-06,-0.93198836,-0.3405312,-0.0035177008,0.07244459,195,3000000000.0
210619,1.0530951771152605e-06,-0.93136525,-0.3421046,-0.0021241085999999998,0.07244377,195,3000000000.0
210620,1.0531010304546278e-06,-0.9309816999999999,-0.3429179,-0.0002809941,0.072474234,195,3000000000.0
210621,1.0531054206860114e-06,-0.93102556,-0.34258336,0.0010615174,0.072498925,195,3000000000.0
210622,1.0531112723954964e-06,-0.93150574,-0.34093288,0.0027575633000000003,0.07253347,195,3000000000.0
210623,1.0531156616638416e-06,-0.9321589,-0.33884573,0.0039342809999999995,0.07255732,195,3000000000.0
210624,1.0531200514050638e-06,-0.93303674,-0.33608976,0.0050094547,0.07258528,195,3000000000.0
210625,1.0531259053078772e-06,-0.93450737,-0.33148584,0.0062580355,0.07261896,195,3000000000.0
210626,1.053130294739033e-06,-0.93579334,-0.32743340000000004,0.0070381598,0.07479544,195,3000000000.0
210627,1.0531361473003944e-06,-0.93768734,-0.3213864,0.0078501515,0.08335587400000001,195,3000000000.0
210628,1.0531405369371177e-06,-0.939197,-0.31648390000000004,0.008278117,0.091202356,195,3000000000.0
210629,1.0531463885495042e-06,-0.94126344,-0.30963856,0.008598465999999999,0.10112379,195,3000000000.0
210630,1.0531507781728001e-06,-0.9428120000000001,-0.30439666,0.00864908,0.10782863,195,3000000000.0
210631,1.0531551676208887e-06,-0.94432604,-0.2991723,0.00853847,0.113619834,195,3000000000.0
210632,1.0531610218348525e-06,-0.94624615,-0.29239899999999996,0.00814734,0.119517535,195,3000000000.0
210633,1.0531654114866208e-06,-0.94758147,-0.2875873,0.0076802713,0.122313425,195,3000000000.0
210634,1.0531712636504251e-06,-0.9491861999999999,-0.28169644,0.0068439995,0.123649135,195,3000000000.0
210635,1.0531756529860286e-06,-0.95023805,-0.2777759,0.006072017,0.12440558,195,3000000000.0
210636,1.053180042277193e-06,-0.9511459000000001,-0.27436259999999996,0.005191424,0.12866580000000002,195,3000000000.0
210637,1.053185893286576e-06,-0.9521159,-0.27070794,0.0038758670000000003,0.1325978,195,3000000000.0
210638,1.0531902827010278e-06,-0.9526541,-0.26870343,0.0028048183000000003,0.13404523,195,3000000000.0
210639,1.0531961367337204e-06,-0.953109,-0.26708516,0.001298863,0.13379703,195,3000000000.0
210640,1.0532005261544454e-06,-0.95324856,-0.26669365,0.0001361523,0.13197373,195,3000000000.0
210641,1.0532063784767614e-06,-0.9531613000000001,-0.26728559999999996,-0.0014220851999999999,0.1275578,195,3000000000.0
210642,1.0532107676143406e-06,-0.95289,-0.26855898,-0.0025718526,0.123011015,195,3000000000.0
210643,1.0532151569807924e-06,-0.9524425999999999,-0.27052376,-0.0036846362,0.11768593,195,3000000000.0
210644,1.0532210080404586e-06,-0.95157534,-0.2741639,-0.005079415,0.10984523,195,3000000000.0
210645,1.0532253970320264e-06,-0.95072633,-0.2776048,-0.0060374457,0.103753716,195,3000000000.0
210646,1.0532312506762044e-06,-0.9493405,-0.2830377,-0.007168430999999999,0.09582819,195,3000000000.0
210647,1.0532356394657499e-06,-0.9481226999999999,-0.28765965,-0.007888923,0.09031388,195,3000000000.0
210648,1.0532400284188765e-06,-0.9467641,-0.2926709,-0.008487399,0.08535157,195,3000000000.0
210649,1.053245880563912e-06,-0.9447598,-0.2998201,-0.009079597,0.079786055,195,3000000000.0
210650,1.053250269984801e-06,-0.94313556,-0.30542293,-0.009360425,0.076471694,195,3000000000.0
210651,1.0532561214726686e-06,-0.94085085,-0.31304538,-0.009508788,0.07321865,195,3000000000.0
210652,1.0532605108539598e-06,-0.93908006,-0.31876254,-0.0094483495,0.07319095,195,3000000000.0
210653,1.0532663645347985e-06,-0.9366966,-0.3262173,-0.009140529,0.07319909,195,3000000000.0
210654,1.0532707540092794e-06,-0.93493235,-0.33156857,-0.0087439725,0.073207244,195,3000000000.0
210655,1.0532751428137687e-06,-0.93322337,-0.33662304,-0.008212062,0.07321377,195,3000000000.0
210656,1.053280994471581e-06,-0.93108594,-0.34277013,-0.007306588,0.07322273,195,3000000000.0
210657,1.053285382964888e-06,-0.9296295,-0.34684587,-0.006493725,0.07323088,195,3000000000.0
210658,1.0532912331257645e-06,-0.9279395,-0.35145068,-0.005255109,0.073241465,195,3000000000.0
210659,1.0532956214866793e-06,-0.92689466,-0.3542161,-0.0042277834999999995,0.07345618,195,3000000000.0
210660,1.0533000101421308e-06,-0.92606604,-0.35634407,-0.0031330990000000003,0.073918484,195,3000000000.0
210661,1.0533058629780262e-06,-0.9253283000000001,-0.35813454,-0.0015966021,0.07570798,195,3000000000.0
210662,1.0533102518811626e-06,-0.9250665000000001,-0.35866368,-0.0004089207,0.07891379,195,3000000000.0
210663,1.0533161042006252e-06,-0.92511755,-0.3582648,0.0011892449,0.08301944,195,3000000000.0
210664,1.0533204929761624e-06,-0.92545587,-0.35713870000000003,0.00237617,0.08586463,195,3000000000.0
210665,1.0533263439929294e-06,-0.92629427,-0.35455778,0.0039109043,0.08919338,195,3000000000.0
210666,1.053330733528235e-06,-0.9271976999999999,-0.35184127,0.005005432,0.09125078,195,3000000000.0
210667,1.0533351230657632e-06,-0.9283171,-0.34849220000000003,0.0060341273999999995,0.09286075,195,3000000000.0
210668,1.0533409769220732e-06,-0.93010694,-0.34311529999999996,0.0072791290000000005,0.09421808,195,3000000000.0
210669,1.0533453662791905e-06,-0.9316389000000002,-0.33846715,0.008101047,0.09459429999999999,195,3000000000.0
210670,1.053351219248367e-06,-0.93388087,-0.33156043,0.009027314,0.09451666,195,3000000000.0
210671,1.0533556088021256e-06,-0.93567306,-0.32593596,0.009582941,0.094687656,195,3000000000.0
210672,1.0533614600201635e-06,-0.9381521,-0.31798459999999995,0.0101249525,0.09398909,195,3000000000.0
210673,1.0533658495061965e-06,-0.94004136,-0.31178,0.010376281,0.09310982400000001,195,3000000000.0
210674,1.0533702392572097e-06,-0.94192487,-0.30545947,0.01049143,0.09388996,195,3000000000.0
210675,1.053376093047487e-06,-0.9443828000000002,-0.29699448,0.0104321735,0.09403735,195,3000000000.0
210676,1.0533804828713742e-06,-0.9461559000000002,-0.29072687,0.010230169,0.09344451,195,3000000000.0
210677,1.0533863359265624e-06,-0.94838876,-0.28263265,0.009757811,0.091702946,195,3000000000.0
210678,1.053390725234824e-06,-0.94994324,-0.2768618,0.009258823499999999,0.0897178,195,3000000000.0
210679,1.0533951143331457e-06,-0.9513802,-0.27143059999999997,0.008644184000000001,0.087199844,195,3000000000.0
210680,1.0534009649665595e-06,-0.95309496,-0.26483762,0.007661059499999999,0.08315088,195,3000000000.0
210681,1.053405354550914e-06,-0.9542209,-0.260457,0.00681443,0.07971048,195,3000000000.0
210682,1.0534112081520313e-06,-0.95549744,-0.25547296,0.00556291,0.07479624,195,3000000000.0
210683,1.0534155973806995e-06,-0.9562818000000001,-0.2524369,0.0045496044,0.074209265,195,3000000000.0
210684,1.053421450102654e-06,-0.9570926,-0.24938959,0.0031250506,0.07424705,195,3000000000.0
210685,1.0534258393106762e-06,-0.9575228000000001,-0.24788645,0.0020203963,0.07427275,195,3000000000.0
210686,1.0534302287080144e-06,-0.9577996,-0.24706948,0.0009008709,0.07429604,195,3000000000.0
210687,1.0534360794895188e-06,-0.9579305,-0.24705315,-0.0005890951,0.07432174,195,3000000000.0
210688,1.0534404686537629e-06,-0.9578496999999999,-0.24783671,-0.0016864503,0.07433538,195,3000000000.0
210689,1.0534463219044628e-06,-0.95750475,-0.24991028,-0.003096244,0.074350625,195,3000000000.0
210690,1.0534507113867931e-06,-0.9570695,-0.25220117,-0.0040962715,0.074361056,195,3000000000.0
210691,1.0534551005809203e-06,-0.9564851999999999,-0.25508246,-0.005033653,0.074362665,195,3000000000.0
210692,1.053460953575158e-06,-0.95547915,-0.2597665,-0.006167264,0.07436186,195,3000000000.0
210693,1.053465343095059e-06,-0.95456034,-0.26384383,-0.0069175204,0.07607511,195,3000000000.0
210694,1.0534711938710677e-06,-0.9531287,-0.2699207,-0.0077687893000000004,0.0782456,195,3000000000.0
210695,1.053475583105063e-06,-0.9519103999999999,-0.27487957,-0.008287312,0.07954788,195,3000000000.0
210696,1.0534814363751079e-06,-0.9501142,-0.28189895,-0.008809407,0.08086171,195,3000000000.0
210697,1.0534858255220595e-06,-0.9486556999999999,-0.28737748,-0.0090699615,0.08154875,195,3000000000.0
210698,1.0534902143836945e-06,-0.9471191999999999,-0.29296196,-0.009216785,0.08199898,195,3000000000.0
210699,1.0534960669866596e-06,-0.9449798,-0.30045340000000004,-0.009236453,0.08226054,195,3000000000.0
210700,1.053500456367133e-06,-0.9433334999999999,-0.30601647,-0.009121829,0.08222280400000001,195,3000000000.0
210701,1.053506306917007e-06,-0.9411234,-0.31323293,-0.008803825,0.08189339,195,3000000000.0
210702,1.0535106958799795e-06,-0.9394834000000001,-0.31841767,-0.008448271,0.08145723,195,3000000000.0
210703,1.053515085270067e-06,-0.9378834999999999,-0.32334316,-0.007999816,0.082071714,195,3000000000.0
210704,1.0535209383521723e-06,-0.9358519000000001,-0.32941788,-0.0072711273,0.08283307,195,3000000000.0
210705,1.0535253272027482e-06,-0.9344328000000002,-0.33354422,-0.0066384085999999995,0.08333368,195,3000000000.0
210706,1.0535311800493697e-06,-0.9327165999999999,-0.33840176,-0.005698350699999999,0.08391029,195,3000000000.0
210707,1.0535355690161704e-06,-0.93158466,-0.34151998,-0.0049349493,0.08427504,195,3000000000.0
210708,1.0535414197199189e-06,-0.93030936,-0.34493290000000004,-0.0038603921000000003,0.08466994,195,3000000000.0
210709,1.0535458092083343e-06,-0.92954224,-0.34691468,-0.0030261603999999997,0.08489377,195,3000000000.0
210710,1.0535501981071924e-06,-0.9289463,-0.3483901,-0.0021805873,0.0850581,195,3000000000.0
210711,1.0535560506156807e-06,-0.9284241,-0.34956807,-0.0010544785000000001,0.08519481,195,3000000000.0
210712,1.053560439724389e-06,-0.92823714,-0.3498663,-0.0002250229,0.08524943,195,3000000000.0
210713,1.0535662923358474e-06,-0.9282543,-0.34950745,0.00084147125,0.08528652,195,3000000000.0
210714,1.0535706815008042e-06,-0.92845786,-0.3486955,0.0015993465,0.08530751,195,3000000000.0
210715,1.0535750705657811e-06,-0.9288145000000001,-0.34744564,0.0023116418,0.08533898,195,3000000000.0
210716,1.053580920918898e-06,-0.9295064000000001,-0.34515098,0.0031770668,0.085412376,195,3000000000.0
210717,1.0535853101449551e-06,-0.93017,-0.34300256,0.0037547903999999997,0.08549688,195,3000000000.0
210718,1.053591162856278e-06,-0.9312178,-0.33964217,0.0044195126,0.08564403,195,3000000000.0
210719,1.0535955520138322e-06,-0.93210447,-0.33680509999999997,0.0048335167,0.08577285,195,3000000000.0
210720,1.0536014051257351e-06,-0.9333899999999999,-0.33268365,0.0052677,0.08595702,195,3000000000.0
210721,1.0536057944127634e-06,-0.9344100000000001,-0.32939926,0.005503049,0.08609577,195,3000000000.0
210722,1.0536101837202022e-06,-0.93545985,-0.3260009,0.0056608487,0.086232215,195,3000000000.0
210723,1.0536160349762405e-06,-0.93688005,-0.32137388,0.005752534,0.08640298,195,3000000000.0
210724,1.0536204246525291e-06,-0.93794316,-0.31788903,0.0057352097,0.086517565,195,3000000000.0
210725,1.053626278456838e-06,-0.93933344,-0.31330675,0.005603726,0.08664302,195,3000000000.0
210726,1.0536306682081787e-06,-0.9403415,-0.30997214,0.005429625,0.08670293,195,3000000000.0
210727,1.0536350575988006e-06,-0.9413088,-0.30676679999999995,0.0051967409999999995,0.08778307,195,3000000000.0
210728,1.053640911151107e-06,-0.94252217,-0.30275086,0.0048052385,0.08948799,195,3000000000.0
210729,1.0536453005068736e-06,-0.94336575,-0.2999715,0.004459658,0.09061408,195,3000000000.0
210730,1.0536511515277374e-06,-0.9443921999999999,-0.2966219,0.0039433306,0.09190386,195,3000000000.0
210731,1.0536555410686814e-06,-0.9450833000000001,-0.29440016,0.003523918,0.09271537,195,3000000000.0
210732,1.0536613940828872e-06,-0.94589484,-0.2918518,0.0029364356,0.09360024,195,3000000000.0
210733,1.0536657834977522e-06,-0.94641876,-0.29026163,0.0024845398000000003,0.09412617,195,3000000000.0
210734,1.0536701729700706e-06,-0.9468697,-0.28894988,0.0020311922,0.09454128,195,3000000000.0
210735,1.053676026385523e-06,-0.94735754,-0.28762993,0.0014366541000000001,0.094930686,195,3000000000.0
210736,1.0536804156686986e-06,-0.9476399999999999,-0.2869532,0.0010069457,0.095095925,195,3000000000.0
210737,1.053686266222823e-06,-0.9479097,-0.28644684,0.00046712626,0.095138595,195,3000000000.0
210738,1.053690655347427e-06,-0.9480358,-0.28634375,9.376308000000001e-05,0.095022455,195,3000000000.0
210739,1.0536950446101572e-06,-0.9481004999999999,-0.28645724,-0.00024742816,0.0947658,195,3000000000.0
210740,1.0537008974590734e-06,-0.9480992,-0.28690824,-0.00064592506,0.094174355,195,3000000000.0
210741,1.0537052867267224e-06,-0.9480390999999999,-0.28744042,-0.0008987495699999999,0.09352305,195,3000000000.0
210742,1.053711140131982e-06,-0.9478912,-0.2883608,-0.0011709509,0.09235349,195,3000000000.0
210743,1.053715529205463e-06,-0.94773746,-0.2891749,-0.0013251575,0.091235735,195,3000000000.0
210744,1.0537213800565443e-06,-0.9474879999999999,-0.2903752,-0.0014642802,0.089410596,195,3000000000.0
210745,1.0537257690362242e-06,-0.9472764000000001,-0.29132828,-0.0015200289000000002,0.08779191,195,3000000000.0
210746,1.0537301581322916e-06,-0.9470513,-0.2922987,-0.0015360513,0.08596119,195,3000000000.0
210747,1.0537360101396816e-06,-0.9467416999999999,-0.2935793,-0.0015000221,0.08320253,195,3000000000.0
210748,1.0537403988632354e-06,-0.9465108,-0.29450196,-0.0014341279999999998,0.080905974,195,3000000000.0
210749,1.0537462523431312e-06,-0.9462152,-0.29564658,-0.0013016721,0.08038879,195,3000000000.0
210750,1.0537506412640131e-06,-0.9460099000000001,-0.29641974,-0.0011745683999999999,0.08024838599999999,195,3000000000.0
210751,1.053755030306032e-06,-0.9458228999999999,-0.29710576,-0.0010288766,0.07997653,195,3000000000.0
210752,1.0537608810586291e-06,-0.9456083000000001,-0.29786855,-0.0008143677,0.07939021,195,3000000000.0
210753,1.0537652700394912e-06,-0.9454761999999999,-0.29831907,-0.0006448547000000001,0.078770004,195,3000000000.0
210754,1.0537711214775296e-06,-0.9453405999999999,-0.29875293,-0.00041714803,0.077696174,195,3000000000.0
210755,1.0537755106025283e-06,-0.94526935,-0.2989547,-0.00025157403,0.07669528,195,3000000000.0
210756,1.0537813640360242e-06,-0.9452127,-0.29906756,-4.6834255000000003e-05,0.07559757,195,3000000000.0
210757,1.0537857535865748e-06,-0.94519603,-0.29904526,8.890121e-05,0.07547672,195,3000000000.0
210758,1.0537901431932032e-06,-0.9451983,-0.29894307,0.00020492807000000002,0.07514082,195,3000000000.0
210759,1.0537959943405488e-06,-0.9452235999999999,-0.29870573,0.0003229725,0.07438513,195,3000000000.0
210760,1.0538003836532896e-06,-0.94525373,-0.29847166,0.00038034504000000003,0.07436748,195,3000000000.0
210761,1.0538062358184958e-06,-0.9452991,-0.29811758,0.00041114222,0.074340194,195,3000000000.0
210762,1.0538106251165577e-06,-0.94533044,-0.29784456,0.00039812565000000005,0.074316114,195,3000000000.0
210763,1.0538150147366495e-06,-0.9453535,-0.29758647,0.00035337126000000005,0.074290425,195,3000000000.0
210764,1.0538208681898034e-06,-0.9453621999999999,-0.29729939,0.00024447187999999996,0.07425509,195,3000000000.0
210765,1.0538252573874058e-06,-0.9453458,-0.29715199999999997,0.00012697034,0.07422535,195,3000000000.0
210766,1.0538311087127104e-06,-0.9452845,-0.29708114,-7.444403e-05,0.07418033,195,3000000000.0
210767,1.0538354979475212e-06,-0.94520366,-0.29714444,-0.00025613446,0.07414734,195,3000000000.0
210768,1.0538413500052135e-06,-0.9450426,-0.29741338,-0.0005335622,0.07410066,195,3000000000.0
210769,1.0538457390622287e-06,-0.94487846,-0.29777035,-0.0007634281599999999,0.07406683,195,3000000000.0
210770,1.0538501282482259e-06,-0.94467443,-0.29827225,-0.0010075261,0.07402978,195,3000000000.0
210771,1.0538559817644685e-06,-0.9443381999999999,-0.29917994,-0.0013475539000000001,0.073981404,195,3000000000.0
210772,1.0538603708472024e-06,-0.94403714,-0.30004509999999995,-0.0016072810000000001,0.07394753,195,3000000000.0
210773,1.0538662219410508e-06,-0.9435707,-0.30144617,-0.0019505558,0.073897496,195,3000000000.0
210774,1.0538706110018112e-06,-0.9431732,-0.30267954,-0.0021993557,0.07386196,195,3000000000.0
210775,1.053876462375917e-06,-0.942583,-0.30455506,-0.0025100103,0.07381752,195,3000000000.0
210776,1.053880851373008e-06,-0.9420985000000001,-0.3061224,-0.0027209866999999997,0.07378681,195,3000000000.0
210777,1.0538852405267059e-06,-0.94158167,-0.30781287,-0.0029079642,0.073752835,195,3000000000.0
210778,1.05389109433959e-06,-0.9408492,-0.31023067,-0.003112611,0.073714,195,3000000000.0
210779,1.0538954836598423e-06,-0.9402735000000001,-0.31214133,-0.003227532,0.07368567,195,3000000000.0
210780,1.0539013347588354e-06,-0.9394818000000001,-0.31477723,-0.0033230598,0.07365247,195,3000000000.0
210781,1.0539057241182735e-06,-0.9388776,-0.31679058,-0.0033479312,0.07362898,195,3000000000.0
210782,1.0539101132659753e-06,-0.9382719999999999,-0.3188063,-0.0033303513,0.07369377,195,3000000000.0
210783,1.053915964636473e-06,-0.9374758,-0.3214517,-0.003238494,0.07903165,195,3000000000.0
210784,1.0539203533461114e-06,-0.9368968000000001,-0.32336909999999996,-0.0031173879,0.08282731,195,3000000000.0
210785,1.0539262072373684e-06,-0.9361648000000001,-0.32578596,-0.0028863617,0.08741995,195,3000000000.0
210786,1.053930596310827e-06,-0.9356571,-0.32745776,-0.002662177,0.090385884,195,3000000000.0
210787,1.053936447428807e-06,-0.93505067,-0.32945040000000003,-0.0022985341,0.09355368,195,3000000000.0
210788,1.0539408367261295e-06,-0.9346593000000001,-0.33073685,-0.0019802724,0.09602235,195,3000000000.0
210789,1.053945226000097e-06,-0.93433106,-0.33181974,-0.0016264557,0.10016632,195,3000000000.0
210790,1.0539510777136736e-06,-0.93400365,-0.33291268,-0.0011059269,0.10510603,195,3000000000.0
210791,1.053955466621083e-06,-0.93384904,-0.333447,-0.0006844759,0.10828019,195,3000000000.0
210792,1.0539613199171516e-06,-0.9337734000000001,-0.33375242,-9.016569e-05,0.11169468,195,3000000000.0
210793,1.0539657086243623e-06,-0.93381965,-0.33366254,0.00037280595000000003,0.11358039999999998,195,3000000000.0
210794,1.0539700975255935e-06,-0.9339569,-0.33329159999999997,0.0008445114999999999,0.11486376,195,3000000000.0
210795,1.0539759484781808e-06,-0.9342826,-0.33235458,0.0014769218,0.11564277,195,3000000000.0
210796,1.0539803373856701e-06,-0.9346331,-0.33132058,0.0019463558,0.1155663,195,3000000000.0
210797,1.0539861891612939e-06,-0.93523735,-0.32950923,0.0025544704000000002,0.114682116,195,3000000000.0
210798,1.053990578179563e-06,-0.9357884,-0.32783732,0.0029897440000000003,0.11352621,195,3000000000.0
