,# t (s),mx (),my (),mz (),MaxAngle (rad),phi (degree),f_RF (GHz)
216001,1.0800056313754177e-06,-0.94108486,-0.31082547,-0.005324959000000001,0.083509654,200,3000000000.0
216002,1.0800100569383093e-06,-0.9398723,-0.31463270000000004,-0.0069954883999999995,0.08434086,200,3000000000.0
216003,1.0800159497051784e-06,-0.9377673000000001,-0.32111758,-0.008930869000000001,0.08544800400000001,200,3000000000.0
216004,1.0800203629508728e-06,-0.9358548000000001,-0.3268822,-0.010149073,0.08612903,200,3000000000.0
216005,1.0800262411703706e-06,-0.93291056,-0.33553216,-0.011446716000000001,0.08678685,200,3000000000.0
216006,1.0800306464615595e-06,-0.9304459999999999,-0.34257475,-0.012167788999999998,0.08710877,200,3000000000.0
216007,1.0800350488552245e-06,-0.9278006999999999,-0.34994559999999997,-0.012669535,0.08731338400000001,200,3000000000.0
216008,1.080040913997612e-06,-0.9240598,-0.36005527,-0.012998171999999999,0.08739332,200,3000000000.0
216009,1.0800453122525012e-06,-0.921148,-0.36768618,-0.012994028999999999,0.08728399,200,3000000000.0
216010,1.0800511748295192e-06,-0.9172134,-0.37768814,-0.012667053999999999,0.086907804,200,3000000000.0
216011,1.0800555703966994e-06,-0.91428727,-0.38490897,-0.012193675,0.08648721,200,3000000000.0
216012,1.0800614305419657e-06,-0.9105141999999999,-0.39396129999999996,-0.011282811,0.08575823,200,3000000000.0
216013,1.0800658241254656e-06,-0.90784633,-0.40019348,-0.010410439,0.08710398,200,3000000000.0
216014,1.0800702166676727e-06,-0.9053701,-0.40585554,-0.009395831,0.089450635,200,3000000000.0
216015,1.0800760705300002e-06,-0.9024435,-0.41239625,-0.007856704,0.09287167,200,3000000000.0
216016,1.0800804611986066e-06,-0.9005786,-0.41647425,-0.0065898382999999994,0.09559554599999999,200,3000000000.0
216017,1.0800863166970035e-06,-0.8985919,-0.42072829999999994,-0.0047933036,0.0992995,200,3000000000.0
216018,1.0800907072917422e-06,-0.8975074000000001,-0.4229942,-0.0033962042,0.10201379,200,3000000000.0
216019,1.0800950973844862e-06,-0.89678645,-0.42445296,-0.0019825564,0.10457063,200,3000000000.0
216020,1.0801009520306885e-06,-0.8963991,-0.42514408,-0.00011159875,0.10761019999999999,200,3000000000.0
216021,1.0801053423115694e-06,-0.8965337,-0.42473978,0.0012512992,0.1095485,200,3000000000.0
216022,1.0801111941268106e-06,-0.89725375,-0.4230237,0.0029735656,0.11162085,200,3000000000.0
216023,1.0801155841994731e-06,-0.89817077,-0.42090523,0.0041689426,0.112770244,200,3000000000.0
216024,1.0801214378661863e-06,-0.8998396999999999,-0.41707143,0.005599592,0.11377167,200,3000000000.0
216025,1.0801258271428841e-06,-0.9013793999999999,-0.4135219,0.0065294863,0.114166856,200,3000000000.0
216026,1.0801302167918502e-06,-0.9031218000000001,-0.4094737,0.007322121,0.11431274599999999,200,3000000000.0
216027,1.080136070375634e-06,-0.90568626,-0.40343925,0.008147056,0.11419563,200,3000000000.0
216028,1.080140459254871e-06,-0.9077324000000001,-0.39855012,0.008581418,0.11394584,200,3000000000.0
216029,1.0801463098070128e-06,-0.9105409,-0.3917213,0.008905931,0.1134778,200,3000000000.0
216030,1.080150698793301e-06,-0.91265327,-0.38648802,0.008956299999999999,0.11306014,200,3000000000.0
216031,1.0801550879066241e-06,-0.914726,-0.38126665,0.008842513,0.11261229,200,3000000000.0
216032,1.080160941063745e-06,-0.9173657,-0.37448713,0.008442734,0.11198039999999998,200,3000000000.0
216033,1.0801653309641792e-06,-0.9192097,-0.36966014,0.0079658935,0.11146932,200,3000000000.0
216034,1.080171184586457e-06,-0.9214341,-0.36373368,0.007112448,0.1106999,200,3000000000.0
216035,1.0801755737262724e-06,-0.9228959000000001,-0.3597768,0.0063251164000000006,0.11002397,200,3000000000.0
216036,1.0801814241781315e-06,-0.9245331,-0.3552872,0.0051064244,0.10894552,200,3000000000.0
216037,1.0801858131314957e-06,-0.9255088,-0.352587,0.0040861415,0.10797033,200,3000000000.0
216038,1.0801902019509338e-06,-0.92625505,-0.350515,0.0029944489,0.10682261,200,3000000000.0
216039,1.080196055175576e-06,-0.92687947,-0.34879324,0.0014594938000000001,0.10498723,200,3000000000.0
216040,1.0802004443964732e-06,-0.927063,-0.34831473,0.00027418837999999997,0.10336741,200,3000000000.0
216041,1.0802062979427478e-06,-0.92692333,-0.34877974,-0.0013150508,0.10090924,200,3000000000.0
216042,1.0802106867188644e-06,-0.9265308000000001,-0.3499502,-0.0024877372,0.09887894,200,3000000000.0
216043,1.080215075494612e-06,-0.92589486,-0.35180596,-0.0036231303,0.096734665,200,3000000000.0
216044,1.0802209262573307e-06,-0.9246776,-0.35529244,-0.005047399,0.09376018,200,3000000000.0
216045,1.080225315016262e-06,-0.92349815,-0.35861242,-0.006026701999999999,0.091504216,200,3000000000.0
216046,1.0802311671116768e-06,-0.92159235,-0.3638764,-0.007184355999999999,0.088560134,200,3000000000.0
216047,1.080235556267058e-06,-0.9199324000000001,-0.36836922,-0.007923823,0.08648169,200,3000000000.0
216048,1.080241409413022e-06,-0.9174473,-0.37494883,-0.008716307,0.08399416,200,3000000000.0
216049,1.080245798365299e-06,-0.91541004,-0.38022077,-0.009153481,0.08263472,200,3000000000.0
216050,1.0802501872625773e-06,-0.91325325,-0.38568932,-0.0094484445,0.08213786,200,3000000000.0
216051,1.0802560376866713e-06,-0.91024494,-0.39313498,-0.00961323,0.08146676,200,3000000000.0
216052,1.0802604263876259e-06,-0.907932,-0.39872378,-0.009563277,0.081017256,200,3000000000.0
216053,1.0802662787285056e-06,-0.9048417,-0.40601638,-0.009267003000000001,0.08055267,200,3000000000.0
216054,1.0802706675770548e-06,-0.9025698,-0.4112564,-0.008877274000000001,0.08034498,200,3000000000.0
216055,1.0802750561336345e-06,-0.9003806999999999,-0.41621122,-0.008350620999999999,0.080742076,200,3000000000.0
216056,1.0802809094630246e-06,-0.8976579,-0.42224857,-0.007449531999999999,0.0824757,200,3000000000.0
216057,1.0802852983808602e-06,-0.8958130999999999,-0.42625988,-0.0066384263,0.08419356,200,3000000000.0
216058,1.0802911487334945e-06,-0.89368343,-0.43080756,-0.005400251,0.08698467,200,3000000000.0
216059,1.0802955375582621e-06,-0.89237344,-0.43355470000000007,-0.0043718459999999995,0.08939991,200,3000000000.0
216060,1.0803013895246784e-06,-0.89106053,-0.43625534,-0.0028971483,0.09296355,200,3000000000.0
216061,1.0803057786705998e-06,-0.89042693,-0.43752027,-0.001734818,0.0958313,200,3000000000.0
216062,1.080310167701251e-06,-0.8901098,-0.43811074,-0.0005432842,0.098793775,200,3000000000.0
216063,1.080316021531284e-06,-0.89019036,-0.43783244,0.0010612642,0.10277826,200,3000000000.0
216064,1.0803204107686229e-06,-0.8906278,-0.43682516,0.0022532820999999997,0.10569468,200,3000000000.0
216065,1.0803262613678437e-06,-0.89169765,-0.43443963,0.003794961,0.10934496,200,3000000000.0
216066,1.0803306503595622e-06,-0.89284635,-0.43189540000000004,0.0048948363,0.11180745,200,3000000000.0
216067,1.0803350389163167e-06,-0.89426786,-0.42873856,0.005928853,0.11395685400000001,200,3000000000.0
216068,1.0803408903245705e-06,-0.8965426,-0.42364576,0.0071807373,0.11623018,200,3000000000.0
216069,1.0803452789857613e-06,-0.89849335,-0.41922608,0.008008006,0.11743234,200,3000000000.0
216070,1.0803511318439975e-06,-0.90135634,-0.41263896,0.008941361,0.118313745,200,3000000000.0
216071,1.0803555199103071e-06,-0.90365183,-0.40726355,0.009501953,0.11843033,200,3000000000.0
216072,1.0803613702210863e-06,-0.906841,-0.39964715,0.010050531,0.11789135,200,3000000000.0
216073,1.0803657593476677e-06,-0.90928215,-0.39369243,0.010306661,0.11701087,200,3000000000.0
216074,1.080370148067386e-06,-0.9117259,-0.3876185,0.010426491,0.11578423,200,3000000000.0
216075,1.0803759999790368e-06,-0.91493046,-0.3794715,0.010373436,0.1137223,200,3000000000.0
216076,1.0803803886954751e-06,-0.9172539000000001,-0.37342990000000004,0.010176085999999999,0.111949995,200,3000000000.0
216077,1.0803862424585965e-06,-0.9201948,-0.36561373,0.009709783,0.109430134,200,3000000000.0
216078,1.080390632186474e-06,-0.92225116,-0.360034,0.009215319,0.10752082,200,3000000000.0
216079,1.0803950222230615e-06,-0.92415756,-0.3547765,0.008605133000000001,0.10566982,200,3000000000.0
216080,1.080400874036753e-06,-0.9264370999999999,-0.34838712,0.0076279477,0.10339456,200,3000000000.0
216081,1.0804052642229072e-06,-0.92793405,-0.34413755,0.006785838000000001,0.101896666,200,3000000000.0
216082,1.0804111169122013e-06,-0.9296257,-0.33929875,0.005540738000000001,0.100246154,200,3000000000.0
216083,1.0804155064926242e-06,-0.930657,-0.33634716,0.0045320285,0.09929709,200,3000000000.0
216084,1.0804213611249498e-06,-0.93170625,-0.3333802,0.0031131796999999996,0.09842507,200,3000000000.0
216085,1.0804257506944684e-06,-0.93224394,-0.3319143,0.0020129734,0.09805619,200,3000000000.0
216086,1.0804301406858222e-06,-0.9325664,-0.33111435,0.0008977339599999999,0.09790691,200,3000000000.0
216087,1.080435992268989e-06,-0.93266135,-0.3310901,-0.00058672344,0.09798798,200,3000000000.0
216088,1.0804403821648466e-06,-0.9324825999999999,-0.33184513,-0.0016801483,0.09819917,200,3000000000.0
216089,1.0804462344620807e-06,-0.9319156,-0.33385035,-0.0030844745,0.098579615,200,3000000000.0
216090,1.0804506239908104e-06,-0.93124884,-0.33606863,-0.0040807626,0.09886626,200,3000000000.0
216091,1.0804550136066959e-06,-0.93038124,-0.33885965,-0.005014601,0.099089436,200,3000000000.0
216092,1.0804608677713807e-06,-0.92892426,-0.34339732,-0.0061436836,0.09918399,200,3000000000.0
216093,1.0804652574127294e-06,-0.9276191999999999,-0.34734538,-0.006890380799999999,0.09904183400000001,200,3000000000.0
216094,1.0804711083200034e-06,-0.9256188,-0.35322627,-0.007736741,0.098482065,200,3000000000.0
216095,1.0804754973995192e-06,-0.9239415999999999,-0.35802153,-0.008251309,0.09774397,200,3000000000.0
216096,1.0804813487169443e-06,-0.92150235,-0.36480114,-0.008767496999999999,0.09630667,200,3000000000.0
216097,1.0804857379955408e-06,-0.9195460999999999,-0.37008893,-0.0090232445,0.09488918,200,3000000000.0
216098,1.0804901268558606e-06,-0.9175064,-0.3754732,-0.009164673,0.09320145,200,3000000000.0
216099,1.0804959806505881e-06,-0.9146984,-0.3826875,-0.009176044,0.09058707,200,3000000000.0
216100,1.0805003696412847e-06,-0.91256136,-0.38803473,-0.009054265,0.091043845,200,3000000000.0
216101,1.0805062206434208e-06,-0.90972304,-0.39495945,-0.008725334,0.09202068,200,3000000000.0
216102,1.0805106095131846e-06,-0.9076383,-0.39992340000000004,-0.008360554000000001,0.09243424,200,3000000000.0
216103,1.0805164602803637e-06,-0.90497184,-0.40612950000000003,-0.0077298456,0.09255943400000001,200,3000000000.0
216104,1.0805208485501893e-06,-0.9030915999999999,-0.4104121,-0.007159009599999999,0.09235737,200,3000000000.0
216105,1.0805252371406041e-06,-0.90134215,-0.4143279,-0.00651452,0.09193243,200,3000000000.0
216106,1.0805310906038758e-06,-0.8992524,-0.4189164000000001,-0.005557875,0.09108972,200,3000000000.0
216107,1.0805354793407778e-06,-0.8978944,-0.42184272,-0.0047819065000000004,0.090312555,200,3000000000.0
216108,1.0805413300705113e-06,-0.8963933000000001,-0.42501643,-0.0036907821999999997,0.089183345,200,3000000000.0
216109,1.080545718635124e-06,-0.8955151,-0.4268325,-0.0028449346,0.088333406,200,3000000000.0
216110,1.0805501074395462e-06,-0.89485824,-0.42815600000000004,-0.0019885504,0.08752161,200,3000000000.0
216111,1.0805559580289922e-06,-0.8943323000000001,-0.42915362,-0.00085056724,0.08655205,200,3000000000.0
216112,1.080560346471587e-06,-0.8941991,-0.42933497,-1.4219794999999999e-05,0.08592369,200,3000000000.0
216113,1.080566199946311e-06,-0.89435923,-0.42884535,0.001058152,0.085200414,200,3000000000.0
216114,1.080570588872922e-06,-0.89472055,-0.42795489999999997,0.0018170851999999998,0.08813116,200,3000000000.0
216115,1.0805764400217342e-06,-0.8954985999999999,-0.42611867,0.0027518445,0.09277136,200,3000000000.0
216116,1.080580828718936e-06,-0.8962833,-0.42429414,0.0033851343,0.09639589,200,3000000000.0
216117,1.080585217439224e-06,-0.89721966,-0.42212522,0.003952928400000001,0.10002137,200,3000000000.0
216118,1.0805910686923263e-06,-0.89866906,-0.41876498,0.004598919,0.10464141,200,3000000000.0
216119,1.0805954572143135e-06,-0.8998790000000001,-0.41594780000000003,0.004994982,0.10778876,200,3000000000.0
216120,1.0806013107995885e-06,-0.90161496,-0.41187784,0.005400405,0.11133796,200,3000000000.0
216121,1.0806056997103706e-06,-0.90297997,-0.40865147,0.0056108055000000006,0.11338617,200,3000000000.0
216122,1.0806100884076679e-06,-0.90437573,-0.40532684,0.00574122,0.114826314,200,3000000000.0
216123,1.0806159394729188e-06,-0.90625006,-0.40082064,0.005793389,0.11574295,200,3000000000.0
216124,1.0806203284486455e-06,-0.90764195,-0.39744335,0.0057447934999999995,0.115676865,200,3000000000.0
216125,1.0806261794044985e-06,-0.90944695,-0.3930261,0.005570532800000001,0.11467691,200,3000000000.0
216126,1.0806305678885428e-06,-0.9107438,-0.38982862,0.00536419,0.11334401,200,3000000000.0
216127,1.0806364216852464e-06,-0.9123732,-0.38578698,0.0049992576,0.11099894,200,3000000000.0
216128,1.0806408108724536e-06,-0.9135061,-0.38296586,0.0046670157,0.10897128,200,3000000000.0
216129,1.0806452000436749e-06,-0.9145532,-0.380355,0.0042925584,0.10685279,200,3000000000.0
216130,1.080651051558342e-06,-0.91580456,-0.37724042,0.0037408796999999997,0.10408871,200,3000000000.0
216131,1.0806554404644966e-06,-0.9166285,-0.37520176,0.0032979408000000003,0.10218572599999999,200,3000000000.0
216132,1.0806612916356232e-06,-0.91756815,-0.3729033,0.002683647,0.10002734,200,3000000000.0
216133,1.0806656805695713e-06,-0.9181528,-0.3715022,0.0022151931,0.09876053,200,3000000000.0
216134,1.08067006967657e-06,-0.91863424,-0.3703794,0.0017485882,0.097827,200,3000000000.0
216135,1.0806759239014426e-06,-0.919119,-0.36930835,0.0011415699000000001,0.09711038,200,3000000000.0
216136,1.0806803133807048e-06,-0.91936815,-0.36881417,0.0007066008999999999,0.09695534,200,3000000000.0
216137,1.0806861655502315e-06,-0.9195563,-0.36854240000000005,0.00016500735,0.097200096,200,3000000000.0
216138,1.0806905548824397e-06,-0.91959625,-0.36860684,-0.00020567926999999999,0.097664535,200,3000000000.0
216139,1.0806964062654556e-06,-0.9195266,-0.36901197,-0.0006441733,0.09855478,200,3000000000.0
216140,1.0807007956538077e-06,-0.91939175,-0.36952546,-0.0009268887,0.09934398,200,3000000000.0
216141,1.0807051846173986e-06,-0.91919506,-0.37019095,-0.0011671396,0.10016036,200,3000000000.0
216142,1.080711038372196e-06,-0.91885144,-0.37126967,-0.0014188518,0.10116452,200,3000000000.0
216143,1.0807154278336594e-06,-0.9185447,-0.37218717,-0.0015552497,0.101759456,200,3000000000.0
216144,1.0807212795568345e-06,-0.9180881999999999,-0.37350409999999995,-0.0016679541,0.102198,200,3000000000.0
216145,1.0807256688123152e-06,-0.9177224,-0.3745284,-0.0017022778,0.10217053400000001,200,3000000000.0
216146,1.0807300575857652e-06,-0.91734713,-0.37555614,-0.0016958595,0.10176826,200,3000000000.0
216147,1.0807359084974128e-06,-0.9168476000000001,-0.37689197,-0.001628884,0.100560725,200,3000000000.0
216148,1.0807402976375463e-06,-0.91648453,-0.37784114,-0.0015393585,0.09910691,200,3000000000.0
216149,1.0807461514003424e-06,-0.91603035,-0.37900183,-0.0013753470999999999,0.09641322,200,3000000000.0
216150,1.0807505406145493e-06,-0.9157211,-0.37977356,-0.0012248566,0.09384609,200,3000000000.0
216151,1.0807563926183443e-06,-0.9153607,-0.3806486,-0.0009969134,0.09291858,200,3000000000.0
216152,1.0807607818089038e-06,-0.915135,-0.38117877,-0.0008121646000000001,0.093840994,200,3000000000.0
216153,1.0807651705767606e-06,-0.91495043,-0.38159516,-0.0006214609,0.09438266599999999,200,3000000000.0
216154,1.080771021906083e-06,-0.9147709,-0.38197124,-0.00036696272,0.09446106,200,3000000000.0
216155,1.080775410925916e-06,-0.9146858,-0.38212147,-0.00018249796,0.094025284,200,3000000000.0
216156,1.0807812648107756e-06,-0.9146361,-0.382156,4.573826e-05,0.09281317,200,3000000000.0
216157,1.0807856539257437e-06,-0.9146424999999999,-0.3820686,0.0001977182,0.09147943,200,3000000000.0
216158,1.080790043206367e-06,-0.9146818999999999,-0.38189667,0.00032880212999999997,0.08984809,200,3000000000.0
216159,1.0807958948971585e-06,-0.9147771,-0.3815597,0.0004650253,0.08735644,200,3000000000.0
216160,1.0808002838041008e-06,-0.91487235,-0.38124663,0.000534535,0.08537394599999999,200,3000000000.0
216161,1.080806134931274e-06,-0.9150188,-0.38078229999999996,0.0005794655,0.08277902,200,3000000000.0
216162,1.0808105239762036e-06,-0.91513366,-0.38042322,0.00057545566,0.08099811,200,3000000000.0
216163,1.0808163776206648e-06,-0.9152796000000001,-0.37996706,0.00051847164,0.0790158,200,3000000000.0
216164,1.080820766876404e-06,-0.9153739,-0.37966776,0.00043713927,0.07791472,200,3000000000.0
216165,1.0808251560810431e-06,-0.9154466999999998,-0.37942675,0.00032363052,0.07719309,200,3000000000.0
216166,1.080831008264896e-06,-0.9154988000000002,-0.37922823,0.00012496917,0.076841384,200,3000000000.0
216167,1.0808353978052629e-06,-0.9154953000000001,-0.37919393,-5.660486999999999e-05,0.07701202,200,3000000000.0
216168,1.08084124875796e-06,-0.91542304,-0.3793304,-0.00033644644999999995,0.07771383,200,3000000000.0
216169,1.0808456377570342e-06,-0.91531163,-0.3795866,-0.00057012547,0.07849304,200,3000000000.0
216170,1.0808500267226564e-06,-0.9151466,-0.37998646,-0.00081966916,0.08086834,200,3000000000.0
216171,1.0808558795191258e-06,-0.9148370000000001,-0.3807566,-0.0011693507,0.08706149,200,3000000000.0
216172,1.0808602676629588e-06,-0.91453546,-0.38151762,-0.0014379533,0.09180638,200,3000000000.0
216173,1.0808661194163386e-06,-0.91403866,-0.38277940000000005,-0.0017951,0.09803792,200,3000000000.0
216174,1.0808705083861116e-06,-0.9135955,-0.38390777,-0.0020554683,0.10246931,200,3000000000.0
216175,1.0808763586208278e-06,-0.9129136999999998,-0.38564312,-0.0023826875,0.10779319,200,3000000000.0
216176,1.0808807478385195e-06,-0.91233754,-0.38710612,-0.0026067526,0.11118282,200,3000000000.0
216177,1.080885136754173e-06,-0.91171074,-0.38869295,-0.0028070596000000004,0.113933265,200,3000000000.0
216178,1.0808909898754186e-06,-0.9108050999999999,-0.3909745,-0.00302951,0.11647047,200,3000000000.0
216179,1.08089537888371e-06,-0.9100824000000001,-0.39278537,-0.0031575619,0.11747354,200,3000000000.0
216180,1.080901230549898e-06,-0.9090752000000001,-0.39529288,-0.0032699876,0.11763617,200,3000000000.0
216181,1.0809056188785906e-06,-0.9082988999999999,-0.39721337,-0.0033068839000000004,0.1169455,200,3000000000.0
216182,1.0809100075741275e-06,-0.907515,-0.39914095,-0.0033006982,0.11566498,200,3000000000.0
216183,1.0809158575324266e-06,-0.9064766,-0.40167670000000005,-0.003222971,0.11325175,200,3000000000.0
216184,1.0809202459077366e-06,-0.9057168999999999,-0.40351954,-0.0031116322999999997,0.111087695,200,3000000000.0
216185,1.0809260983309223e-06,-0.90475076,-0.40584785,-0.0028926118,0.10799632,200,3000000000.0
216186,1.0809304873618375e-06,-0.90407634,-0.40746334,-0.0026766458000000003,0.10569017,200,3000000000.0
216187,1.0809363395779845e-06,-0.9032652,-0.40939555,-0.0023229920000000003,0.10283925,200,3000000000.0
216188,1.0809407283520384e-06,-0.90273696,-0.4106479,-0.0020117238000000003,0.10097489,200,3000000000.0
216189,1.0809451170058464e-06,-0.9022886,-0.41170767,-0.0016644858,0.09941427,200,3000000000.0
216190,1.0809509670582e-06,-0.9018305,-0.41278723,-0.0011522378,0.09785873,200,3000000000.0
216191,1.0809553560866677e-06,-0.90160185,-0.41332567,-0.00073649734,0.097102396,200,3000000000.0
216192,1.080961208648285e-06,-0.9014622999999999,-0.41365543,-0.0001494249,0.09662413,200,3000000000.0
216193,1.0809655974357349e-06,-0.9014878000000001,-0.41359819999999997,0.00030852633,0.096632786,200,3000000000.0
216194,1.0809714501513109e-06,-0.9017004999999999,-0.41310290000000005,0.0009322722999999999,0.097061805,200,3000000000.0
216195,1.0809758396786814e-06,-0.90199524,-0.41241324,0.0014023827,0.09763580599999999,200,3000000000.0
216196,1.080980229156336e-06,-0.9024046999999998,-0.41145143,0.0018679476,0.09836985,200,3000000000.0
216197,1.0809860804070392e-06,-0.9031239,-0.4097537,0.0024713797,0.0995007,200,3000000000.0
216198,1.0809904696432922e-06,-0.9037870000000001,-0.4081788,0.0029037024,0.10038839999999999,200,3000000000.0
