,# t (s),mx (),my (),mz (),MaxAngle (rad),phi (degree),f_RF (GHz)
243001,1.2150058136153487e-06,-0.72893035,-0.67408705,-0.0047804127,0.107268915,225,3000000000.0
243002,1.2150102251535666e-06,-0.7264510999999999,-0.67677647,-0.0064820335,0.106837146,225,3000000000.0
243003,1.2150160992282543e-06,-0.7220863000000001,-0.68146133,-0.008473366500000001,0.10611082599999999,225,3000000000.0
243004,1.2150205030885695e-06,-0.7181046999999999,-0.68568224,-0.009743222,0.10549053,225,3000000000.0
243005,1.2150263716765429e-06,-0.7119946,-0.69206417,-0.011117451,0.10459004,225,3000000000.0
243006,1.2150307704755423e-06,-0.7069169,-0.69728196,-0.011898865,0.10387508599999999,225,3000000000.0
243007,1.2150351676846904e-06,-0.7015103,-0.7027539,-0.012461534,0.10315809,225,3000000000.0
243008,1.2150410310382726e-06,-0.6939436999999999,-0.71027005,-0.012869443000000001,0.10223538,225,3000000000.0
243009,1.2150454264201851e-06,-0.6881259,-0.7159393000000001,-0.012921027,0.10154977400000001,225,3000000000.0
243010,1.2150512840662584e-06,-0.6803616,-0.7233606,-0.012661548,0.100591004,225,3000000000.0
243011,1.215055677338825e-06,-0.67465436,-0.7287132,-0.012232373999999999,0.09979668,225,3000000000.0
243012,1.2150600699489415e-06,-0.6691516,-0.7337938,-0.011615552,0.09892361599999999,225,3000000000.0
243013,1.2150659259841477e-06,-0.66228664,-0.74002486,-0.010527217,0.09762908,225,3000000000.0
243014,1.2150703172770071e-06,-0.6575991999999999,-0.7442133000000001,-0.009534299,0.09653760000000002,225,3000000000.0
243015,1.2150761738521036e-06,-0.6521023,-0.74905956,-0.0080118375,0.09485961,225,3000000000.0
243016,1.2150805650292878e-06,-0.6486278,-0.7520884,-0.0067496896,0.09341512,225,3000000000.0
243017,1.2150864176321631e-06,-0.64495367,-0.755266,-0.0049503543,0.09128544,225,3000000000.0
243018,1.2150908084867548e-06,-0.64296156,-0.7569818,-0.0035433688,0.08957266,225,3000000000.0
243019,1.2150951986260613e-06,-0.641649,-0.7581144000000001,-0.0021144957,0.08778783,225,3000000000.0
243020,1.2151010515960727e-06,-0.640967,-0.75871843,-0.00021652046000000003,0.08533059,225,3000000000.0
243021,1.2151054417163988e-06,-0.6412465999999999,-0.7585029999999999,0.0011715329,0.08347749,225,3000000000.0
243022,1.2151112956300795e-06,-0.6426316,-0.7573568,0.002932626,0.08110485,225,3000000000.0
243023,1.2151156843113026e-06,-0.6443818,-0.7558863,0.0041587334000000005,0.0794841,225,3000000000.0
243024,1.2151200729975558e-06,-0.64668906,-0.7539288000000001,0.0052830740000000005,0.08050451,225,3000000000.0
243025,1.2151259227686178e-06,-0.65052927,-0.7506319,0.006594708,0.08209281,225,3000000000.0
243026,1.2151303112277923e-06,-0.6538974,-0.7477038,0.0074198986,0.08285251,225,3000000000.0
243027,1.215136162268386e-06,-0.65889806,-0.7432956999999999,0.008286647,0.08324484,225,3000000000.0
243028,1.215140551127072e-06,-0.66292995,-0.73968863,0.008750785,0.08305897,225,3000000000.0
243029,1.215146404494276e-06,-0.6685293999999999,-0.73460037,0.009111716,0.08217200000000001,225,3000000000.0
243030,1.2151507929045031e-06,-0.67278934,-0.7306666999999999,0.009186241999999999,0.081036404,225,3000000000.0
243031,1.2151551814153822e-06,-0.67701477,-0.72671014,0.009093843,0.07950587,225,3000000000.0
243032,1.215161031018682e-06,-0.6824631999999999,-0.72152585,0.00871832,0.07885253,225,3000000000.0
243033,1.215165418802236e-06,-0.6863209,-0.7177967,0.008256379,0.080414765,225,3000000000.0
243034,1.215171268805877e-06,-0.691037,-0.71316916,0.0074187490000000005,0.082782626,225,3000000000.0
243035,1.215175657044878e-06,-0.69418067,-0.71004015,0.0066401013,0.08473405,225,3000000000.0
243036,1.2151800460658977e-06,-0.69693255,-0.70726985,0.005748514000000001,0.08680542599999999,225,3000000000.0
243037,1.215185899549715e-06,-0.69992167,-0.70422316,0.004412285,0.08967188,225,3000000000.0
243038,1.2151902881427654e-06,-0.7016102,-0.7024803000000001,0.0033233191,0.09182784,225,3000000000.0
243039,1.2151961388764644e-06,-0.7030811,-0.70094013,0.0017915937,0.09461323,225,3000000000.0
243040,1.2152005275878154e-06,-0.70357996,-0.7003999,0.00060829753,0.09658088,225,3000000000.0
243041,1.2152063782906633e-06,-0.7034295,-0.70051676,-0.0009767888,0.0989743,225,3000000000.0
243042,1.215210766978782e-06,-0.70270896,-0.7012288000000001,-0.0021456336,0.10055598,225,3000000000.0
243043,1.2152151557716248e-06,-0.7014799,-0.7024604999999999,-0.00327564,0.10192654,225,3000000000.0
243044,1.2152210090385365e-06,-0.6990835999999999,-0.70486814,-0.0046902727,0.10339629,225,3000000000.0
243045,1.2152253973968944e-06,-0.6967547,-0.7072010999999999,-0.0056592147,0.10422228,225,3000000000.0
243046,1.2152312483259373e-06,-0.69300663,-0.71093106,-0.006799375600000001,0.10496902,225,3000000000.0
243047,1.2152356369028659e-06,-0.68976796,-0.7141259,-0.0075232214,0.105279736,225,3000000000.0
243048,1.2152400257226411e-06,-0.68621707,-0.71759677,-0.008121811999999999,0.10539029,225,3000000000.0
243049,1.2152458767703451e-06,-0.68109286,-0.7225455,-0.008709533,0.10526669999999999,225,3000000000.0
243050,1.2152502654233104e-06,-0.6770345,-0.72641414,-0.008984261,0.10500884,225,3000000000.0
243051,1.2152561186386422e-06,-0.6714571999999999,-0.73165774,-0.009122108,0.10451922599999999,225,3000000000.0
243052,1.215260507380923e-06,-0.6672392,-0.7355676999999999,-0.009052982,0.104083546,225,3000000000.0
243053,1.2152663571508164e-06,-0.6616994,-0.74063104,-0.008734740999999999,0.10347538,225,3000000000.0
243054,1.2152707453709542e-06,-0.65769476,-0.74424154,-0.008332481999999999,0.103023134,225,3000000000.0
243055,1.2152751328319386e-06,-0.6538948,-0.7476295999999999,-0.007798014,0.10257473,225,3000000000.0
243056,1.2152809826280092e-06,-0.6492558,-0.7517170999999999,-0.0068960604,0.10196872,225,3000000000.0
243057,1.2152853714013359e-06,-0.6461729,-0.75440496,-0.0060921840000000005,0.10147801,225,3000000000.0
243058,1.2152912239389592e-06,-0.64269197,-0.75741446,-0.0048759338,0.10071735,225,3000000000.0
243059,1.2152956128959508e-06,-0.64061207,-0.7592018,-0.0038749743,0.10002973,225,3000000000.0
243060,1.215300001380063e-06,-0.63902706,-0.76056063,-0.0028157692999999998,0.09920566,225,3000000000.0
243061,1.2153058519197945e-06,-0.6377285,-0.7616782,-0.0013420558999999999,0.09784592,225,3000000000.0
243062,1.2153102409679701e-06,-0.63738614,-0.7619835,-0.00021265787999999997,0.09660930000000001,225,3000000000.0
243063,1.215316092648948e-06,-0.6377815,-0.7616738000000001,0.0012918283,0.0946618,225,3000000000.0
243064,1.2153204816384169e-06,-0.63870925,-0.7609090999999999,0.0023971070000000003,0.09299821400000001,225,3000000000.0
243065,1.2153263349721078e-06,-0.64075613,-0.7591984,0.003808942,0.090556756,225,3000000000.0
243066,1.2153307232410023e-06,-0.64286256,-0.7574196999999999,0.0048006577000000005,0.08860258,225,3000000000.0
243067,1.2153351116203432e-06,-0.64542,-0.7552406999999999,0.005719274,0.0865879,225,3000000000.0
243068,1.2153409612624219e-06,-0.64945465,-0.75176287,0.006807945,0.08389819,225,3000000000.0
243069,1.2153453493234828e-06,-0.6528858000000001,-0.74876773,0.007508225699999999,0.08194875,225,3000000000.0
243070,1.2153511994012134e-06,-0.65789473,-0.7443341,0.008269102,0.07952913,225,3000000000.0
243071,1.2153555878301471e-06,-0.6619016,-0.7407347,0.008701013,0.079335324,225,3000000000.0
243072,1.2153614411382792e-06,-0.66746217,-0.7356608,0.009082353,0.08061042,225,3000000000.0
243073,1.2153658302729216e-06,-0.6717138,-0.7317185,0.009218691,0.08117545400000001,225,3000000000.0
243074,1.2153702196302015e-06,-0.6759677,-0.7277184,0.009226056,0.08137588,225,3000000000.0
243075,1.2153760708948804e-06,-0.6815396,-0.72239286,0.009037936,0.08106291,225,3000000000.0
243076,1.2153804602925155e-06,-0.6855720000000001,-0.71847594,0.008752862,0.08039102,225,3000000000.0
243077,1.2153863119324283e-06,-0.69065267,-0.7134639,0.008191354,0.07894403,225,3000000000.0
243078,1.2153907009486193e-06,-0.6941804,-0.7099312,0.007643616800000001,0.077473156,225,3000000000.0
243079,1.2153950900741472e-06,-0.697419,-0.70664924,0.0069972463,0.07574421,225,3000000000.0
243080,1.21540094424924e-06,-0.7012255000000001,-0.7027414000000001,0.0059995484,0.077536285,225,3000000000.0
243081,1.2154053334325293e-06,-0.70365494,-0.7002170999999999,0.005164795,0.07919079,225,3000000000.0
243082,1.2154111844679482e-06,-0.7062813,-0.6974584,0.003960205,0.081762135,225,3000000000.0
243083,1.2154155740209831e-06,-0.7077688,-0.695879,0.0030047768,0.08392308,225,3000000000.0
243084,1.2154214254370855e-06,-0.70908535,-0.69446397,0.0016882670999999998,0.08704092,225,3000000000.0
243085,1.215425814596832e-06,-0.70956534,-0.6939346,0.0006866166999999999,0.08950066599999999,225,3000000000.0
243086,1.2154302035844644e-06,-0.70960975,-0.69386506,-0.00031169842,0.092012905,225,3000000000.0
243087,1.215436057866846e-06,-0.7090006,-0.69447845,-0.0016147014000000002,0.095368594,225,3000000000.0
243088,1.215440447394614e-06,-0.7080562,-0.6954511999999999,-0.0025532832,0.09782822,225,3000000000.0
243089,1.215446299525085e-06,-0.7061779,-0.6973923000000001,-0.003730003,0.1009471,225,3000000000.0
243090,1.2154506888526241e-06,-0.704332,-0.6992954,-0.0045419456,0.10311583,225,3000000000.0
243091,1.2154550784688706e-06,-0.7021404,-0.70154506,-0.005281991,0.10509637,225,3000000000.0
243092,1.2154609297327412e-06,-0.69873434,-0.70501506,-0.006141176999999999,0.107398555,225,3000000000.0
243093,1.2154653191720258e-06,-0.69586086,-0.7079166,-0.006680469499999999,0.10883966,225,3000000000.0
243094,1.215471173429976e-06,-0.6916773,-0.7120970999999999,-0.007248047,0.11036164,225,3000000000.0
243095,1.215475562309204e-06,-0.6883319,-0.71540254,-0.0075543545999999994,0.11119518,225,3000000000.0
243096,1.215481415080688e-06,-0.6836779000000001,-0.7199463,-0.007799185300000001,0.11190730000000002,225,3000000000.0
243097,1.215485805082809e-06,-0.6801029000000001,-0.7233939,-0.007859169499999999,0.11216055,225,3000000000.0
243098,1.2154901947926126e-06,-0.6765091999999999,-0.726823,-0.007814231,0.11219462,225,3000000000.0
243099,1.2154960466272265e-06,-0.67177176,-0.7312881999999999,-0.0075958325,0.111941464,225,3000000000.0
243100,1.2155004356915563e-06,-0.66831994,-0.7345035,-0.0073186588,0.11155823,225,3000000000.0
243101,1.21550628995059e-06,-0.6639377,-0.73854095,-0.006808742,0.11084063,225,3000000000.0
243102,1.2155106790984936e-06,-0.66087383,-0.7413352,-0.006330682,0.11017803,225,3000000000.0
243103,1.2155150685071793e-06,-0.65804327,-0.7438971999999999,-0.005779851999999999,0.10942632,225,3000000000.0
243104,1.2155209199414488e-06,-0.65469277,-0.74690765,-0.0049487820000000005,0.10830004,225,3000000000.0
243105,1.21552530850836e-06,-0.65253544,-0.7488355,-0.004266213,0.10736517599999999,225,3000000000.0
243106,1.2155311581429815e-06,-0.6501778,-0.7509364000000001,-0.0032981283,0.105977364,225,3000000000.0
243107,1.2155355460167764e-06,-0.6488199,-0.75214744,-0.0025428985,0.104806766,225,3000000000.0
243108,1.2155413985824574e-06,-0.6475754,-0.753266,-0.0015185905,0.10302082,225,3000000000.0
243109,1.21554578713478e-06,-0.64707094,-0.75373167,-0.00075252,0.10147743,225,3000000000.0
243110,1.2155501750705477e-06,-0.64693046,-0.75388205,-5.766236e-07,0.09973086,225,3000000000.0
243111,1.2155560264714998e-06,-0.6472913,-0.75360674,0.00096215575,0.097048275,225,3000000000.0
243112,1.2155604148045174e-06,-0.6479526999999999,-0.75305945,0.0016414406,0.094759494,225,3000000000.0
243113,1.2155662654873169e-06,-0.64931434,-0.75190663,0.002473252,0.09134623,225,3000000000.0
243114,1.2155706543690143e-06,-0.6506615,-0.7507504,0.0030317770000000003,0.088540584,225,3000000000.0
243115,1.215575043020343e-06,-0.652254,-0.74937046,0.0035268265999999996,0.085564554,225,3000000000.0
243116,1.2155808961943422e-06,-0.6547018,-0.7472265,0.004079275,0.08142133,225,3000000000.0
243117,1.2155852846883638e-06,-0.6567337,-0.74542826,0.0044075875,0.07826466,225,3000000000.0
243118,1.2155911353695863e-06,-0.659634,-0.7428348000000001,0.0047261985,0.081289314,225,3000000000.0
243119,1.2155955238663635e-06,-0.6619046,-0.7407833,0.004874653,0.08435784,225,3000000000.0
243120,1.215601373161241e-06,-0.664987,-0.737969,0.0049529118,0.08798341,225,3000000000.0
243121,1.2156057617633443e-06,-0.66729563,-0.7358395000000001,0.0049244273,0.09028546,225,3000000000.0
243122,1.2156101504649858e-06,-0.6695633000000001,-0.7337299,0.0048247445,0.09217105,225,3000000000.0
243123,1.2156160036513122e-06,-0.67247,-0.7310001,0.004588657,0.09396178,225,3000000000.0
243124,1.2156203922947915e-06,-0.6745245,-0.7290531,0.004341369,0.09472296,225,3000000000.0
243125,1.2156262435475956e-06,-0.6770506,-0.72663933,0.003930123,0.094931945,225,3000000000.0
243126,1.21563063230922e-06,-0.6787585999999999,-0.72499496,0.0035697685,0.09448318,225,3000000000.0
243127,1.215635021907529e-06,-0.6802884,-0.7235139,0.0031733962,0.09353262,225,3000000000.0
243128,1.2156408727227564e-06,-0.6820274000000001,-0.72182053,0.0026031553,0.091525085,225,3000000000.0
243129,1.2156452612317103e-06,-0.68309593,-0.7207752,0.002154716,0.08951733,225,3000000000.0
243130,1.2156511143838181e-06,-0.6841977,-0.7196935,0.0015447316000000001,0.08623914,225,3000000000.0
243131,1.2156555036042542e-06,-0.68478096,-0.71911937,0.0010889191,0.08338451,225,3000000000.0
243132,1.2156613562205645e-06,-0.6852414000000001,-0.7186651,0.00049802894,0.07913200599999999,225,3000000000.0
243133,1.2156657452757382e-06,-0.68535805,-0.71854955,7.694849e-05,0.077147484,225,3000000000.0
243134,1.2156701340579552e-06,-0.6852902,-0.7186157,-0.00031786259999999996,0.08058525,225,3000000000.0
243135,1.215675985052489e-06,-0.6849358,-0.718963,-0.0007933407,0.08534248,225,3000000000.0
243136,1.2156803742034825e-06,-0.68449265,-0.7193968000000001,-0.0011053933,0.08896693,225,3000000000.0
243137,1.2156862280787254e-06,-0.6836991,-0.720171,-0.0014544172,0.09376081,225,3000000000.0
243138,1.2156906177604903e-06,-0.6829783,-0.72087157,-0.0016619211999999999,0.09724369,225,3000000000.0
243139,1.215695006976618e-06,-0.6821733,-0.72165096,-0.0018207475,0.10056251,225,3000000000.0
243140,1.2157008586834336e-06,-0.6810073,-0.7227746,-0.0019552887,0.10462656599999999,225,3000000000.0
243141,1.2157052473896715e-06,-0.68009233,-0.72365195,-0.00199843,0.107333474,225,3000000000.0
243142,1.2157110970134536e-06,-0.6788611999999999,-0.72482616,-0.0019811278,0.11038004,225,3000000000.0
243143,1.2157154850730403e-06,-0.6779571,-0.7256842,-0.0019147883999999999,0.1121877,225,3000000000.0
243144,1.2157213375528477e-06,-0.6768158000000001,-0.7267618,-0.0017608723,0.11390494599999999,225,3000000000.0
243145,1.2157257260737044e-06,-0.67603284,-0.72749764,-0.0016013571,0.11465294,225,3000000000.0
243146,1.2157301145908864e-06,-0.67533076,-0.7281548000000001,-0.0014090306,0.11494486,225,3000000000.0
243147,1.215735966375537e-06,-0.6745453,-0.72888726,-0.0011103000999999999,0.11466596,225,3000000000.0
243148,1.2157403548025124e-06,-0.67408407,-0.7293156999999999,-0.0008616964300000001,0.11402131,225,3000000000.0
243149,1.2157462048321535e-06,-0.67365587,-0.7297123000000001,-0.0005086027,0.11270455,225,3000000000.0
243150,1.215750593684103e-06,-0.6734815,-0.72987354,-0.0002352179,0.11147414,225,3000000000.0
243151,1.2157564468131201e-06,-0.6734479999999999,-0.7299041000000001,0.00012918883,0.10967002,225,3000000000.0
243152,1.2157608356704607e-06,-0.6735703000000001,-0.72979087,0.00039457239999999996,0.10829397,225,3000000000.0
243153,1.215765224902575e-06,-0.6738135999999999,-0.7295659999999999,0.00064686686,0.10696842,225,3000000000.0
243154,1.2157710773739166e-06,-0.67431295,-0.729104,0.00095357455,0.10536081,225,3000000000.0
243155,1.2157754663283422e-06,-0.6748052,-0.7286481,0.0011549223,0.10430991,225,3000000000.0
243156,1.215781317167309e-06,-0.6755934,-0.7279164,0.0013768723,0.10311698,225,3000000000.0
243157,1.2157857068964555e-06,-0.67626417,-0.7272923000000001,0.0015037789000000002,0.10235154,225,3000000000.0
243158,1.2157900963459623e-06,-0.6769843000000001,-0.72662026,0.0015934254999999998,0.101659074,225,3000000000.0
243159,1.2157959503237478e-06,-0.6779904,-0.72567844,0.0016513139999999999,0.10077009,225,3000000000.0
243160,1.2158003398658264e-06,-0.6787545,-0.7249603,0.0016467457999999999,0.10006076,225,3000000000.0
243161,1.2158061930341731e-06,-0.6797496999999999,-0.72402143,0.0015758404000000001,0.09896344,225,3000000000.0
243162,1.2158105823656424e-06,-0.6804536,-0.7233546,0.0014746492999999999,0.09797152,225,3000000000.0
243163,1.2158164335916212e-06,-0.6813003000000001,-0.7225490999999999,0.0012782883,0.096365534,225,3000000000.0
243164,1.2158208224679885e-06,-0.681844,-0.7220297,0.0010877253,0.094926916,225,3000000000.0
243165,1.21582521174155e-06,-0.68229175,-0.7216003000000001,0.0008632875,0.09328724,225,3000000000.0
243166,1.215831064747485e-06,-0.68271476,-0.72119296,0.0005176354,0.090820014,225,3000000000.0
243167,1.2158354541480628e-06,-0.6828854999999999,-0.7210272,0.00022915342,0.08880913,225,3000000000.0
243168,1.215841306860812e-06,-0.68289953,-0.72101164,-0.00018539223999999998,0.08599658,225,3000000000.0
243169,1.2158456952879816e-06,-0.68274015,-0.7211637,-0.0005118381,0.08386618,225,3000000000.0
243170,1.2158500841960257e-06,-0.6824304,-0.72146106,-0.0008455420599999999,0.081781834,225,3000000000.0
243171,1.2158559341893645e-06,-0.6817803000000001,-0.7220865,-0.0012916322,0.07917346,225,3000000000.0
243172,1.2158603228342412e-06,-0.68111575,-0.7227259,-0.00161971,0.078740455,225,3000000000.0
243173,1.2158661747041931e-06,-0.6800016999999999,-0.72379714,-0.0020374182999999997,0.080525994,225,3000000000.0
243174,1.2158705622909702e-06,-0.67900425,-0.72475463,-0.0023285355,0.08149166,225,3000000000.0
243175,1.2158764150093449e-06,-0.67747587,-0.7262179,-0.0026773454,0.082253285,225,3000000000.0
243176,1.215880803656293e-06,-0.67619735,-0.72743803,-0.0029029376,0.08242142,225,3000000000.0
243177,1.215885192808702e-06,-0.67482144,-0.72874653,-0.0030928517,0.08225401,225,3000000000.0
243178,1.2158910423635887e-06,-0.6728656999999999,-0.73059803,-0.0032839514,0.08153485,225,3000000000.0
243179,1.2158954314757307e-06,-0.671331,-0.7320437,-0.0033767878000000003,0.08065926,225,3000000000.0
243180,1.2159012838875956e-06,-0.6692334,-0.7340085999999999,-0.0034287222999999996,0.07910561,225,3000000000.0
243181,1.2159056725541388e-06,-0.66765,-0.7354834,-0.0034118425,0.077699244,225,3000000000.0
243182,1.2159100608960795e-06,-0.66608274,-0.73693585,-0.0033463507,0.07612293,225,3000000000.0
243183,1.2159159134561676e-06,-0.6640564,-0.7388022,-0.003183679,0.07801344,225,3000000000.0
243184,1.2159203015406742e-06,-0.66261446,-0.7401223000000001,-0.0030065365000000004,0.07962511,225,3000000000.0
243185,1.2159261513985845e-06,-0.6608368,-0.74174,-0.0027003820000000003,0.081954576,225,3000000000.0
243186,1.2159305394750074e-06,-0.65963924,-0.7428234,-0.0024216943,0.08379998,225,3000000000.0
243187,1.215936390545497e-06,-0.65826017,-0.74406374,-0.0019912384,0.086351864,225,3000000000.0
243188,1.2159407785944382e-06,-0.6574116999999999,-0.7448222,-0.0016296251999999998,0.08830975,225,3000000000.0
243189,1.2159451675484965e-06,-0.65673923,-0.74542,-0.0012398819,0.090281494,225,3000000000.0
243190,1.2159510200133154e-06,-0.6561378999999999,-0.7459496999999999,-0.00068548566,0.092902526,225,3000000000.0
243191,1.2159554085674736e-06,-0.65592074,-0.7461366,-0.0002509403,0.09484072,225,3000000000.0
243192,1.2159612583331465e-06,-0.65595454,-0.7460964,0.00034231434,0.09734984,225,3000000000.0
243193,1.2159656468595004e-06,-0.6562258000000001,-0.7458461999999999,0.0007901529300000001,0.099145465,225,3000000000.0
243194,1.2159700356023488e-06,-0.65670735,-0.74540776,0.0012337175,0.10084176,225,3000000000.0
243195,1.215975887473405e-06,-0.65766937,-0.74453557,0.0018082362,0.102901354,225,3000000000.0
243196,1.2159802766671872e-06,-0.65862185,-0.7436728,0.0022190218,0.10425895,225,3000000000.0
243197,1.2159861286800279e-06,-0.6601792,-0.74225974,0.0027295507,0.105766974,225,3000000000.0
243198,1.2159905182132507e-06,-0.66154563,-0.74101627,0.0030781133,0.10664693,225,3000000000.0
