,# t (s),mx (),my (),mz (),MaxAngle (rad),phi (degree),f_RF (GHz)
253801,1.2690058394928459e-06,-0.60902625,-0.78509915,-0.0044421315999999995,0.07859331,235,3000000000.0
253802,1.2690102491524863e-06,-0.60629165,-0.78721046,-0.0061694975,0.07847327,235,3000000000.0
253803,1.2690161221955984e-06,-0.6013925999999999,-0.79095227,-0.008205271,0.078519635,235,3000000000.0
253804,1.2690205249749338e-06,-0.59688115,-0.7943545999999999,-0.009514134,0.078739695,235,3000000000.0
253805,1.2690263934802507e-06,-0.58991617,-0.7995279000000001,-0.010946281,0.07928944,235,3000000000.0
253806,1.2690307922551195e-06,-0.5841058000000001,-0.80377126,-0.01177382,0.07994295,235,3000000000.0
253807,1.2690351898349563e-06,-0.57790446,-0.8082291,-0.01238377,0.08082923,235,3000000000.0
253808,1.2690410512381814e-06,-0.5692128000000001,-0.8143553000000001,-0.01285456,0.08236855,235,3000000000.0
253809,1.2690454462147044e-06,-0.5625185,-0.818979,-0.01295225,0.0837836,235,3000000000.0
253810,1.269051303189035e-06,-0.55357265,-0.8250318000000001,-0.012751067,0.086022265,235,3000000000.0
253811,1.269055695571452e-06,-0.5469883000000001,-0.8293968,-0.012362324,0.0879739,235,3000000000.0
253812,1.2690600880034763e-06,-0.5406298,-0.8335411,-0.011782261,0.090161085,235,3000000000.0
253813,1.2690659451363432e-06,-0.5326783,-0.83862865,-0.0107360855,0.09340234,235,3000000000.0
253814,1.2690703372537564e-06,-0.52723306,-0.84205335,-0.009769204,0.09602048,235,3000000000.0
253815,1.2690761931981242e-06,-0.520822,-0.8460271999999999,-0.0082739005,0.099660784,235,3000000000.0
253816,1.2690805841085597e-06,-0.5167438,-0.8485248,-0.007025826,0.10243959,235,3000000000.0
253817,1.2690864375822577e-06,-0.51238704,-0.8511719000000001,-0.0052363183,0.10611814,235,3000000000.0
253818,1.2690908284854105e-06,-0.5099829,-0.8526286,-0.0038304538,0.10879192,235,3000000000.0
253819,1.269095219256575e-06,-0.50834864,-0.85362434,-0.0023970879,0.11132401,235,3000000000.0
253820,1.2691010740179172e-06,-0.50738376,-0.8542349,-0.0004846844,0.11435714,235,3000000000.0
253821,1.2691054643029123e-06,-0.50756276,-0.85416275,0.0009195680000000001,0.1163016,235,3000000000.0
253822,1.2691113192720726e-06,-0.5089630999999999,-0.85338205,0.0027095699,0.11838643,235,3000000000.0
253823,1.2691157093231536e-06,-0.5108351,-0.85230666,0.003962257,0.119542524,235,3000000000.0
253824,1.2691200990594215e-06,-0.5133554,-0.8508370000000001,0.0051166257,0.120328635,235,3000000000.0
253825,1.2691259497649765e-06,-0.51761365,-0.8483151,0.006472807,0.120777175,235,3000000000.0
253826,1.269130339104602e-06,-0.52138877,-0.8460448,0.007334233000000001,0.12067324,235,3000000000.0
253827,1.269136192316697e-06,-0.52704364,-0.8425879999999999,0.008252045,0.12001043,235,3000000000.0
253828,1.2691405816396894e-06,-0.531637,-0.83973193,0.008755526,0.11918915,235,3000000000.0
253829,1.269146434829264e-06,-0.5380611,-0.8356661,0.009169473000000001,0.11778336,235,3000000000.0
253830,1.2691508235721541e-06,-0.5429831,-0.8324940999999999,0.00928352,0.11656430000000001,235,3000000000.0
253831,1.2691552118684168e-06,-0.5478943000000001,-0.8292792999999999,0.009229847,0.11524952,235,3000000000.0
253832,1.2691610615333747e-06,-0.55427384,-0.82502794,0.008903869,0.113400914,235,3000000000.0
253833,1.2691654498469514e-06,-0.55882686,-0.82194006,0.008476913,0.11197346400000001,235,3000000000.0
253834,1.2691713012616532e-06,-0.5644425999999999,-0.8180681,0.0076822187,0.11005057,235,3000000000.0
253835,1.269175690090681e-06,-0.5682245,-0.8154191999999999,0.006932725,0.10859576,235,3000000000.0
253836,1.2691800792453009e-06,-0.5715713000000001,-0.81304574,0.006067455,0.10711459,235,3000000000.0
253837,1.269185932589607e-06,-0.5752699,-0.81038713,0.0047615436,0.10506057,235,3000000000.0
253838,1.2691903214558223e-06,-0.5774170999999999,-0.80882347,0.0036914240000000004,0.10342343,235,3000000000.0
253839,1.2691961713183707e-06,-0.57938796,-0.80736786,0.0021799685999999998,0.10106591,235,3000000000.0
253840,1.2692005590104963e-06,-0.5801731,-0.80677354,0.0010080945,0.09914666400000001,235,3000000000.0
253841,1.2692064095964612e-06,-0.58028007,-0.8066635999999999,-0.0005672096,0.09639279,235,3000000000.0
253842,1.269210797782787e-06,-0.57965845,-0.80709225,-0.0017323422,0.09420794,235,3000000000.0
253843,1.2692151863819677e-06,-0.57844883,-0.80794775,-0.0028618035999999998,0.09195515,235,3000000000.0
253844,1.2692210389124935e-06,-0.5759597,-0.80971795,-0.0042801793,0.08891189,235,3000000000.0
253845,1.2692254271726114e-06,-0.57347745,-0.8114804,-0.005255298,0.08667194,235,3000000000.0
253846,1.2692312772386866e-06,-0.5694254,-0.8143405,-0.0064076344,0.083854795,235,3000000000.0
253847,1.2692356658795401e-06,-0.56589246,-0.8168131,-0.007143639,0.08196039999999999,235,3000000000.0
253848,1.269240055074629e-06,-0.5619994,-0.8195131,-0.007756754,0.08032345,235,3000000000.0
253849,1.2692459076876587e-06,-0.55635875,-0.82337767,-0.008367333000000001,0.078624435,235,3000000000.0
253850,1.2692502976434635e-06,-0.55188,-0.82640547,-0.008661591,0.07775528,235,3000000000.0
253851,1.2692561523410464e-06,-0.54571575,-0.83051354,-0.008828510999999999,0.0780471,235,3000000000.0
253852,1.269260542258291e-06,-0.54104906,-0.83357805,-0.008783413,0.078138776,235,3000000000.0
253853,1.2692663937855672e-06,-0.5349159000000001,-0.8375461999999999,-0.008500098000000001,0.07795377,235,3000000000.0
253854,1.2692707839608255e-06,-0.5304789000000001,-0.8403754000000001,-0.008126132,0.07895234,235,3000000000.0
253855,1.269275173678804e-06,-0.5262659000000001,-0.84303,-0.007621726,0.08032865,235,3000000000.0
253856,1.2692810264114758e-06,-0.5211173,-0.84623307,-0.00676265,0.08270258,235,3000000000.0
253857,1.269285415962358e-06,-0.5176906,-0.84834075,-0.005993295,0.08484667,235,3000000000.0
253858,1.2692912689517706e-06,-0.5138093,-0.85070664,-0.0048260274,0.08811355400000001,235,3000000000.0
253859,1.2692956578508066e-06,-0.51147664,-0.8521191999999999,-0.0038639393,0.09080884,235,3000000000.0
253860,1.269300046501937e-06,-0.5096819,-0.85320354,-0.0028451947,0.093658894,235,3000000000.0
253861,1.2693058967065564e-06,-0.5081730999999999,-0.85411936,-0.00142785,0.0975985,235,3000000000.0
253862,1.269310285534041e-06,-0.5077259,-0.8544004999999999,-0.0003421974,0.100583285,235,3000000000.0
253863,1.2693161371972844e-06,-0.5080518,-0.8542311,0.0011025618,0.104485504,235,3000000000.0
253864,1.2693205262215427e-06,-0.508979,-0.8536999,0.0021623464,0.10727504,235,3000000000.0
253865,1.2693263796844854e-06,-0.5110914000000001,-0.8524676,0.0035132603000000004,0.11070207,235,3000000000.0
253866,1.2693307682165921e-06,-0.5132941,-0.85116684,0.0044596614,0.11298404,235,3000000000.0
253867,1.269335156741762e-06,-0.5159847,-0.8495619000000001,0.005333701,0.11496201,235,3000000000.0
253868,1.2693410070726255e-06,-0.52024955,-0.84698516,0.0063650534,0.117049664,235,3000000000.0
253869,1.2693453950940409e-06,-0.52388716,-0.84475726,0.0070244037,0.11815609,235,3000000000.0
253870,1.2693512460147975e-06,-0.5292100000000001,-0.8414485999999999,0.007734695400000001,0.118986465,235,3000000000.0
253871,1.2693556343536914e-06,-0.53347385,-0.8387566999999999,0.008132162,0.11912246,235,3000000000.0
253872,1.269360022914465e-06,-0.5378970999999999,-0.8359245999999999,0.008408558,0.11885685,235,3000000000.0
253873,1.2693658760410828e-06,-0.5439279,-0.8319983,0.008584579,0.11792985,235,3000000000.0
253874,1.2693702651500154e-06,-0.5484618,-0.82899594,0.008571675,0.11686578,235,3000000000.0
253875,1.2693761153344905e-06,-0.55439657,-0.8249998,0.008364843,0.11507730000000001,235,3000000000.0
253876,1.2693805037196193e-06,-0.5586867,-0.8220630999999999,0.008072498,0.11355462,235,3000000000.0
253877,1.2693863541647269e-06,-0.5640805999999999,-0.8183123000000001,0.0075109317,0.11142805,235,3000000000.0
253878,1.2693907420212478e-06,-0.5678137,-0.8156770000000001,0.0069707627,0.109847955,235,3000000000.0
253879,1.269395129993835e-06,-0.57122695,-0.81323844,0.006338684,0.10834469999999999,235,3000000000.0
253880,1.2694009829796699e-06,-0.5752113,-0.81035465,0.005370639,0.106535435,235,3000000000.0
253881,1.2694053714942939e-06,-0.5777281999999999,-0.8085108,0.004566089000000001,0.10535968,235,3000000000.0
253882,1.269411221829119e-06,-0.5804050000000001,-0.8065277,0.0034122728000000003,0.10404453,235,3000000000.0
253883,1.2694156102697766e-06,-0.5818785,-0.8054231,0.0025027662,0.10322809999999999,235,3000000000.0
253884,1.2694214604245905e-06,-0.58310676,-0.8044874,0.0012572099,0.10230077,235,3000000000.0
253885,1.269425848787796e-06,-0.5834693,-0.8041977,0.00031561815,0.10167493,235,3000000000.0
253886,1.2694302377510598e-06,-0.5833545,-0.80426157,-0.0006174177400000001,0.10104878,235,3000000000.0
253887,1.2694360911852614e-06,-0.5824733,-0.8048856,-0.0018257304000000002,0.10012041,235,3000000000.0
253888,1.2694404800288073e-06,-0.5812856,-0.80574137,-0.0026885406,0.099282056,235,3000000000.0
253889,1.2694463303293141e-06,-0.5790406,-0.80736256,-0.0037590915,0.09789899,235,3000000000.0
253890,1.2694507189380558e-06,-0.5768956000000001,-0.8089075,-0.0044888103999999995,0.09662351,235,3000000000.0
253891,1.2694551072914738e-06,-0.5743916,-0.810702,-0.0051451647,0.09513295,235,3000000000.0
253892,1.2694609589847306e-06,-0.5705595,-0.81342715,-0.0058924723,0.09282475,235,3000000000.0
253893,1.2694653486635573e-06,-0.56736916,-0.81567496,-0.0063485466,0.09089162,235,3000000000.0
253894,1.2694712036239028e-06,-0.56278044,-0.8188734999999999,-0.0068079485,0.08813251,235,3000000000.0
253895,1.2694755938855172e-06,-0.5591533000000001,-0.82137287,-0.00703652,0.08601185,235,3000000000.0
253896,1.2694814456905872e-06,-0.5541679,-0.8247664000000001,-0.007183856999999999,0.08324627,235,3000000000.0
253897,1.2694858355806149e-06,-0.55038315,-0.82731104,-0.007176671999999999,0.081308395,235,3000000000.0
253898,1.2694902254416687e-06,-0.54661876,-0.82981527,-0.0070706313,0.07956364,235,3000000000.0
253899,1.2694960783047077e-06,-0.5417213000000001,-0.8330343000000001,-0.006781566,0.08121514,235,3000000000.0
253900,1.2695004676038608e-06,-0.53820467,-0.8353193000000001,-0.0064605023,0.082396075,235,3000000000.0
253901,1.2695063225423592e-06,-0.53381217,-0.8381441999999999,-0.005905369000000001,0.083353005,235,3000000000.0
253902,1.2695107123324608e-06,-0.5307986,-0.84006464,-0.0054040966,0.083554655,235,3000000000.0
253903,1.2695151021119676e-06,-0.5280678000000001,-0.8417937,-0.0048397295,0.083286405,235,3000000000.0
253904,1.2695209543831489e-06,-0.5249235,-0.8437742,-0.004006064,0.082179986,235,3000000000.0
253905,1.2695253449047143e-06,-0.52297187,-0.84500057,-0.003333161,0.080793045,235,3000000000.0
253906,1.2695311970146072e-06,-0.5209511,-0.8462731,-0.0023937363,0.07957638,235,3000000000.0
253907,1.2695355859974051e-06,-0.519887,-0.8469499,-0.0016717804999999998,0.08143306,235,3000000000.0
253908,1.2695414406518906e-06,-0.51907927,-0.84748054,-0.0007067642999999999,0.08435218,235,3000000000.0
253909,1.2695458303331392e-06,-0.518929,-0.84760225,4.0750020000000004e-06,0.08681779,235,3000000000.0
253910,1.269550219629917e-06,-0.51915854,-0.84749347,0.00069229054,0.08948132,235,3000000000.0
253911,1.269556071108295e-06,-0.5200273,-0.84700483,0.0015577123999999999,0.09325075,235,3000000000.0
253912,1.269560459534735e-06,-0.5210720999999999,-0.8463957000000001,0.0021560518,0.0961733,235,3000000000.0
253913,1.2695663104816169e-06,-0.5229372999999999,-0.84528714,0.002871108,0.10009477,235,3000000000.0
253914,1.2695706989848072e-06,-0.52464825,-0.84425527,0.003336687,0.10296689999999999,235,3000000000.0
253915,1.2695750867216809e-06,-0.5265865,-0.84307337,0.0037354478,0.10571163,235,3000000000.0
253916,1.2695809397069778e-06,-0.529459,-0.8412995999999999,0.0041564396,0.10905564599999999,235,3000000000.0
253917,1.2695853271981008e-06,-0.53177506,-0.83985204,0.0043853554,0.11124512,235,3000000000.0
253918,1.2695911766856813e-06,-0.5350015,-0.8378110999999999,0.0045727434999999995,0.11363456,235,3000000000.0
253919,1.2695955642383134e-06,-0.5374722,-0.8362295,0.004625288,0.11497604,235,3000000000.0
253920,1.2696014136391243e-06,-0.5407576,-0.83410215,0.0045812579999999995,0.11611860000000002,235,3000000000.0
253921,1.2696058015793848e-06,-0.5431666,-0.8325248,0.0044666263,0.116489455,235,3000000000.0
253922,1.269610189459347e-06,-0.54548866,-0.83099055,0.0042867498,0.11646278,235,3000000000.0
253923,1.2696160423044751e-06,-0.5483953,-0.82905096,0.0039545297999999994,0.11588944,235,3000000000.0
253924,1.2696204302189109e-06,-0.55039465,-0.8277046,0.0036443907,0.11513284,235,3000000000.0
253925,1.2696262806945557e-06,-0.5527751999999999,-0.8260886999999999,0.0031629,0.11384042,235,3000000000.0
253926,1.2696306695910666e-06,-0.5543218000000001,-0.82503146,0.0027606583,0.112760715,235,3000000000.0
253927,1.2696350587440384e-06,-0.555647,-0.82412094,0.002332195,0.11168291,235,3000000000.0
253928,1.2696409086511926e-06,-0.55705154,-0.8231513,0.0017347799,0.11037246,235,3000000000.0
253929,1.2696452971812223e-06,-0.55782694,-0.82261395,0.0012776672,0.10955941,235,3000000000.0
253930,1.269651149726379e-06,-0.55848867,-0.82215405,0.0006717477999999999,0.10876501,235,3000000000.0
253931,1.2696555381434696e-06,-0.558711,-0.8219989,0.00023039004,0.10839374,235,3000000000.0
253932,1.2696613890953023e-06,-0.5586585000000001,-0.8220341999999998,-0.00032674067000000004,0.10816043,235,3000000000.0
253933,1.269665777299259e-06,-0.5583735,-0.8222304,-0.00071239565,0.10812288,235,3000000000.0
253934,1.2696701660877421e-06,-0.5578958,-0.8225594,-0.0010638562,0.108127855,235,3000000000.0
253935,1.269676017385012e-06,-0.5569919,-0.8231796999999998,-0.0014703859,0.10806376,235,3000000000.0
253936,1.2696804057035166e-06,-0.55614203,-0.8237604,-0.0017233434,0.107854664,235,3000000000.0
253937,1.269686258975142e-06,-0.5548244999999999,-0.82465565,-0.0019855523,0.10720710000000001,235,3000000000.0
253938,1.2696906475553577e-06,-0.5537319,-0.8253937,-0.0021231552,0.10635703,235,3000000000.0
253939,1.269695036886582e-06,-0.5525787,-0.8261678,-0.0022091155,0.10513785,235,3000000000.0
253940,1.26970089005208e-06,-0.5509939,-0.82722414,-0.0022435492999999997,0.10290251,235,3000000000.0
253941,1.2697052793981136e-06,-0.54980487,-0.82801056,-0.002210666,0.10077484,235,3000000000.0
253942,1.2697111312638285e-06,-0.54826826,-0.82901883,-0.002092601,0.0973995,235,3000000000.0
253943,1.2697155215196477e-06,-0.54718393,-0.8297245999999999,-0.001952305,0.094546966,235,3000000000.0
253944,1.2697213773395616e-06,-0.5458719,-0.8305710999999999,-0.001703603,0.09047037,235,3000000000.0
253945,1.269725767768652e-06,-0.5450151,-0.8311190999999999,-0.0014770032999999998,0.08733457,235,3000000000.0
253946,1.2697301583717433e-06,-0.5442861,-0.83158123,-0.0012218088,0.08423821,235,3000000000.0
253947,1.2697360111687073e-06,-0.5435371,-0.83204997,-0.00084705505,0.08033979,235,3000000000.0
253948,1.2697404012385006e-06,-0.5431560000000001,-0.83228344,-0.00054786773,0.08107174,235,3000000000.0
253949,1.2697462529782804e-06,-0.5429015,-0.8324312,-0.00013684983,0.08408079,235,3000000000.0
253950,1.2697506420263552e-06,-0.54290384,-0.8324176,0.00017238922999999998,0.08585768,235,3000000000.0
253951,1.2697550311175787e-06,-0.54307044,-0.83229893,0.00047549447999999995,0.087164246,235,3000000000.0
253952,1.2697608849673911e-06,-0.54353935,-0.8319827,0.0008597330300000001,0.08810474,235,3000000000.0
253953,1.2697652742128587e-06,-0.5440646,-0.8316343,0.0011253834,0.08818396,235,3000000000.0
253954,1.2697711257693108e-06,-0.5449731,-0.83103603,0.0014395842000000001,0.08745203,235,3000000000.0
253955,1.2697755147175354e-06,-0.5457906,-0.83049905,0.0016391972,0.08630485,235,3000000000.0
253956,1.2697813653968228e-06,-0.54702747,-0.8296867,0.00184961,0.08405311,235,3000000000.0
253957,1.2697857538790908e-06,-0.5480393,-0.82902145,0.0019614697,0.081888296,235,3000000000.0
253958,1.2697901427545976e-06,-0.54909873,-0.82832366,0.0020311915,0.07938044,235,3000000000.0
253959,1.269795996712636e-06,-0.55054605,-0.8273676,0.0020558538,0.07938044,235,3000000000.0
253960,1.269800385929177e-06,-0.55162615,-0.82665175,0.0020221695,0.08201136,235,3000000000.0
253961,1.269806238221557e-06,-0.5530147,-0.82572854,0.0019080976,0.08582918,235,3000000000.0
253962,1.2698106268889606e-06,-0.55398726,-0.82507956,0.0017721624,0.08886154,235,3000000000.0
253963,1.2698150151988618e-06,-0.5548763000000001,-0.8244847,0.0015952397,0.091977865,235,3000000000.0
253964,1.2698208651573458e-06,-0.5558966,-0.82380056,0.0013005008,0.096167095,235,3000000000.0
253965,1.2698252542262095e-06,-0.5565141,-0.8233860999999999,0.0010397803,0.09926041,235,3000000000.0
253966,1.2698311072650213e-06,-0.5571096,-0.8229871,0.0006473823,0.10319976,235,3000000000.0
253967,1.2698354952783435e-06,-0.55736774,-0.82281584,0.0003259869,0.10593735,235,3000000000.0
253968,1.269841346659359e-06,-0.55744165,-0.82277226,-0.00012869316999999998,0.10919302,235,3000000000.0
253969,1.269845735312935e-06,-0.5572851,-0.8228846,-0.00048186106,0.111273035,235,3000000000.0
253970,1.269850123876232e-06,-0.5569427,-0.8231245999999999,-0.0008388116000000001,0.11300147,235,3000000000.0
253971,1.269855973035007e-06,-0.5561974000000001,-0.82364225,-0.0013099571,0.11471024,235,3000000000.0
253972,1.2698603620123446e-06,-0.55542517,-0.8241759,-0.0016521752,0.115530625,235,3000000000.0
253973,1.2698662147826823e-06,-0.5541241,-0.8250713,-0.0020821972,0.11602133,235,3000000000.0
253974,1.2698706036141062e-06,-0.55295825,-0.82587034,-0.0023776111,0.11596879,235,3000000000.0
253975,1.2698764549534085e-06,-0.55117565,-0.8270867000000001,-0.0027254825,0.11541992400000001,235,3000000000.0
253976,1.2698808428882401e-06,-0.549689,-0.82809585,-0.002945783,0.11472013,235,3000000000.0
253977,1.2698852308096935e-06,-0.54809505,-0.82917297,-0.0031267419,0.1138462,235,3000000000.0
253978,1.2698910810370751e-06,-0.5458398,-0.83068806,-0.0033009439,0.112528995,235,3000000000.0
253979,1.2698954699010822e-06,-0.5440804,-0.83186275,-0.0033778646,0.111514315,235,3000000000.0
253980,1.2699013230691259e-06,-0.541691,-0.83344764,-0.0034052741,0.110242516,235,3000000000.0
253981,1.2699057125021068e-06,-0.5399003000000001,-0.8346276,-0.0033682508,0.10940667,235,3000000000.0
253982,1.2699101018324369e-06,-0.5381399,-0.8357810999999999,-0.0032817917,0.108706795,235,3000000000.0
253983,1.2699159548468093e-06,-0.53588474,-0.83724886,-0.0030910275,0.10800351,235,3000000000.0
253984,1.2699203438847608e-06,-0.5342960999999999,-0.8382761000000001,-0.002893535,0.10763739,235,3000000000.0
253985,1.2699261946200023e-06,-0.53236157,-0.8395191999999999,-0.0025624896,0.107320674,235,3000000000.0
253986,1.26993058368428e-06,-0.5310771,-0.8403396999999999,-0.0022675917,0.107164204,235,3000000000.0
253987,1.2699364366108841e-06,-0.5296258,-0.84126127,-0.0018199020000000002,0.10697624,235,3000000000.0
253988,1.2699408249460549e-06,-0.52875674,-0.84181017,-0.0014494657999999999,0.10679074,235,3000000000.0
253989,1.2699452139789305e-06,-0.52809197,-0.84222746,-0.0010548839999999999,0.10651862,235,3000000000.0
253990,1.2699510658825943e-06,-0.5275436,-0.8425684999999999,-0.00050093234,0.10595877,235,3000000000.0
253991,1.2699554545250938e-06,-0.52739596,-0.8426570999999999,-7.217212e-05,0.10535685,235,3000000000.0
253992,1.2699613047629132e-06,-0.5275586999999999,-0.8425476999999999,0.00050572545,0.104293875,235,3000000000.0
253993,1.2699656935979784e-06,-0.52795064,-0.84229463,0.00093617913,0.103307895,235,3000000000.0
253994,1.2699700827340015e-06,-0.52857035,-0.84189725,0.0013573779,0.102174036,235,3000000000.0
253995,1.2699759353892514e-06,-0.52973837,-0.8411489999999999,0.0018945899,0.10048589,235,3000000000.0
253996,1.2699803239787777e-06,-0.5308568,-0.84043187,0.0022719896,0.09913222,235,3000000000.0
253997,1.2699861762115117e-06,-0.53264475,-0.83928204,0.0027317228,0.097284205,235,3000000000.0
253998,1.2699905653391049e-06,-0.5341861999999999,-0.83828676,0.00303797,0.09591847,235,3000000000.0
