,# t (s),mx (),my (),mz (),MaxAngle (rad),phi (degree),f_RF (GHz)
27000,1.3500135964458486e-07,0.9132667,0.38525570000000003,0.0022795072,0.09903158,25,3000000000.0
27001,1.3500571587551838e-07,0.9134758,0.38466403,0.00015972936000000003,0.09871821,25,3000000000.0
27002,1.3501013758819425e-07,0.91319007,0.38527876,-0.001952014,0.09868192,25,3000000000.0
27003,1.350160262208266e-07,0.9120481,0.38795182,-0.004662312,0.098972484,25,3000000000.0
27004,1.3502043673220608e-07,0.9106378,0.39128298,-0.00658547,0.099415466,25,3000000000.0
27005,1.3502631017245124e-07,0.90804803,0.39736566,-0.00896038,0.10032653,25,3000000000.0
27006,1.3503071299661722e-07,0.9055949000000001,0.40305376,-0.010572516,0.101268925,25,3000000000.0
27007,1.3503511302894373e-07,0.90272766,0.409598,-0.012016878,0.10239703,25,3000000000.0
27008,1.3504097766249453e-07,0.89830595,0.4194673,-0.0136513775,0.10403879,25,3000000000.0
27009,1.3504537433930793e-07,0.8945825999999999,0.42757037,-0.014638741,0.10528768,25,3000000000.0
27010,1.350512362192597e-07,0.8891495999999999,0.43906805,-0.01561448,0.10691593,25,3000000000.0
27011,1.3505563073975736e-07,0.88478667,0.44803447,-0.01607933,0.108080894,25,3000000000.0
27012,1.350600243396279e-07,0.88023734,0.45714527,-0.01630994,0.10914433,25,3000000000.0
27013,1.350658798503531e-07,0.8739904000000001,0.4692812,-0.016251352,0.11027826,25,3000000000.0
27014,1.3507027119645262e-07,0.8692559999999999,0.47820726,-0.015936395,0.11084333,25,3000000000.0
27015,1.3507612559147852e-07,0.86301684,0.48963568,-0.015167741,0.11115434,25,3000000000.0
27016,1.3508051623218934e-07,0.85849017,0.49770218,-0.014343215,0.111019924,25,3000000000.0
27017,1.35086371713811e-07,0.8528014000000002,0.507586,-0.012939369,0.11027989,25,3000000000.0
27018,1.3509076148090453e-07,0.84889317,0.5142199000000001,-0.011681238,0.10926847,25,3000000000.0
27019,1.350951514748147e-07,0.84536725,0.5200992,-0.010268888,0.10785410599999999,25,3000000000.0
27020,1.3510100311249574e-07,0.84136915,0.52664727,-0.008185191,0.10537952,25,3000000000.0
27021,1.351053925656253e-07,0.8389648999999999,0.5305234999999999,-0.006502555,0.10312277,25,3000000000.0
27022,1.3511124409834294e-07,0.83663154,0.534237,-0.0041484535,0.09966978,25,3000000000.0
27023,1.3511563362003177e-07,0.83557147,0.5359009,-0.0023333903,0.09682410000000001,25,3000000000.0
27024,1.3512002274954775e-07,0.8351200999999999,0.53659105,-0.0005059203,0.093843535,25,3000000000.0
27025,1.3512587608979752e-07,0.8354664,0.53600216,0.0019052126,0.089816205,25,3000000000.0
27026,1.3513026536242732e-07,0.8364207,0.53444934,0.0036605783000000004,0.09283954,25,3000000000.0
27027,1.3513611687507445e-07,0.83856946,0.5309531,0.0058842697,0.09679019,25,3000000000.0
27028,1.3514050664959652e-07,0.8407891,0.5273146,0.007435833,0.09932054,25,3000000000.0
27029,1.351463581706725e-07,0.8444645000000001,0.521213,0.009309798000000001,0.10203018,25,3000000000.0
27030,1.3515074752049402e-07,0.8476844000000001,0.51578206,0.01054664,0.10351980000000001,25,3000000000.0
27031,1.351551369377626e-07,0.85123056,0.50970274,0.011621824,0.10452665,25,3000000000.0
27032,1.3516099033849445e-07,0.8563506,0.50073385,0.01278303,0.10512194,25,3000000000.0
27033,1.3516537950360448e-07,0.8603934999999999,0.49348238,0.013437501000000001,0.105013385,25,3000000000.0
27034,1.3517123162412726e-07,0.86592585,0.48330188,0.014010729,0.104136884,25,3000000000.0
27035,1.3517562124435044e-07,0.87009674,0.47541726,0.014212925,0.10293385,25,3000000000.0
27036,1.3518001117397346e-07,0.8742175999999999,0.46743873,0.014220531000000002,0.101244755,25,3000000000.0
27037,1.351858624800041e-07,0.87953573,0.45684752,0.013934688,0.09819309,25,3000000000.0
27038,1.351902525921963e-07,0.88333046,0.44907323,0.013506757,0.095246464,25,3000000000.0
27039,1.351961076409215e-07,0.88805044,0.43913332,0.012669221000000001,0.0914592,25,3000000000.0
27040,1.352004976328184e-07,0.89128846,0.43213029999999997,0.0118567925,0.09508651,25,3000000000.0
27041,1.3520635021818526e-07,0.89515203,0.42356706,0.010554919,0.10011326,25,3000000000.0
27042,1.352107403290757e-07,0.8976832,0.41782939999999996,0.009435192,0.10391015,25,3000000000.0
27043,1.3521513051607365e-07,0.89988315,0.41275877,0.008212254,0.107614085,25,3000000000.0
27044,1.3522098350431284e-07,0.90228397,0.40713766,0.0064537576,0.11219409,25,3000000000.0
27045,1.3522537371265164e-07,0.90367854,0.40383542,0.0050639613,0.11518107,25,3000000000.0
27046,1.3523122879485655e-07,0.904993,0.40071085,0.0031539325,0.11830061,25,3000000000.0
27047,1.3523561870840364e-07,0.9055713,0.39934948,0.0017054306,0.119814105,25,3000000000.0
27048,1.3524000895376994e-07,0.905805,0.3988328,0.00026464966,0.12047998,25,3000000000.0
27049,1.3524586172666913e-07,0.9055902,0.39943829999999997,-0.0016109357999999998,0.11988141,25,3000000000.0
27050,1.3525025148451516e-07,0.9050449,0.4008319,-0.0029602149,0.11824403,25,3000000000.0
27051,1.3525610314702124e-07,0.9038252,0.40387112,-0.004650028400000001,0.11449654,25,3000000000.0
27052,1.3526049205071225e-07,0.9025569999999999,0.40697318,-0.0058158315,0.1106292,25,3000000000.0
27053,1.352663459955132e-07,0.90042347,0.41209513,-0.0072092568,0.10436485,25,3000000000.0
27054,1.3527073529851758e-07,0.8985156999999999,0.41658482,-0.008117777,0.102141894,25,3000000000.0
27055,1.3527512449327474e-07,0.89636815,0.42154744,-0.008898719,0.10203194,25,3000000000.0
27056,1.3528097648594275e-07,0.8931749,0.42876074,-0.009728701999999999,0.10065687,25,3000000000.0
27057,1.3528536605162207e-07,0.890569,0.43451035,-0.010186055,0.098755695,25,3000000000.0
27058,1.3529121719710582e-07,0.8868758,0.44246376,-0.010570135,0.09523831,25,3000000000.0
27059,1.3529560628707722e-07,0.88398653,0.4485362,-0.010688554,0.09204533,25,3000000000.0
27060,1.3530145906252982e-07,0.8800475,0.45661694,-0.010623911000000002,0.08739059,25,3000000000.0
27061,1.3530584766444685e-07,0.8770809000000002,0.46256018,-0.010414111,0.083858356,25,3000000000.0
27062,1.3531023634414014e-07,0.87414926,0.46832034,-0.010073027,0.08049709,25,3000000000.0
27063,1.353160872762856e-07,0.8703656999999999,0.47559574,-0.009428428,0.07877985,25,3000000000.0
27064,1.3532047530049277e-07,0.8676735999999999,0.48066809999999993,-0.008815519499999999,0.08233305,25,3000000000.0
27065,1.353263256476248e-07,0.86435044,0.48681563,-0.007847655,0.08789042400000001,25,3000000000.0
27066,1.3533071431505468e-07,0.8621013000000001,0.4909062,-0.007025198000000001,0.09241100000000001,25,3000000000.0
27067,1.3533510325141226e-07,0.860095,0.49450868,-0.0061353906,0.09700951,25,3000000000.0
27068,1.353409562858316e-07,0.85784006,0.49850390000000006,-0.0048692096,0.10292688,25,3000000000.0
27069,1.3534534497400507e-07,0.85648954,0.5008674,-0.0038795972,0.10696562400000001,25,3000000000.0
27070,1.3535119619735338e-07,0.85516673,0.5031559,-0.002535362,0.111504674,25,3000000000.0
27071,1.3535558511745445e-07,0.85454035,0.50422317,-0.0015278719,0.11408258,25,3000000000.0
27072,1.3536143511889802e-07,0.8541911,0.50479406,-0.00021367973999999998,0.11620346,25,3000000000.0
27073,1.353658234508941e-07,0.85428345,0.5046034,0.0007327296000000001,0.11671897,25,3000000000.0
27074,1.3537021220486945e-07,0.85466474,0.5039072,0.0016311001000000002,0.116288245,25,3000000000.0
27075,1.353760654512582e-07,0.85559,0.50224394,0.0027341426,0.114315875,25,3000000000.0
27076,1.35380454762963e-07,0.85656583,0.5004922,0.0034765515,0.11190837599999999,25,3000000000.0
27077,1.3538630681512767e-07,0.85819113,0.497564,0.004336745,0.10772779,25,3000000000.0
27078,1.353906956434391e-07,0.859614,0.49498427,0.0048755872999999995,0.10407781,25,3000000000.0
27079,1.3539508450399457e-07,0.861176,0.4921318,0.005317501999999999,0.1001848,25,3000000000.0
27080,1.3540093470282088e-07,0.86341774,0.4879983,0.005750103,0.09974582,25,3000000000.0
27081,1.3540532398653974e-07,0.8651768,0.48472029999999994,0.005955340999999999,0.10126303,25,3000000000.0
27082,1.3541117788741416e-07,0.8675648000000001,0.48021993,0.0060707159999999994,0.10219566,25,3000000000.0
27083,1.354155672456811e-07,0.86934763,0.47682133,0.006041536,0.10209454,25,3000000000.0
27084,1.3542141956272993e-07,0.87166107,0.47236140000000004,0.0058562793,0.10100386,25,3000000000.0
27085,1.3542580894029146e-07,0.873316,0.46913640000000006,0.0056150819999999995,0.09959067,25,3000000000.0
27086,1.3543019830955766e-07,0.8748771999999999,0.4660677,0.005294221,0.09779283,25,3000000000.0
27087,1.3543604944335014e-07,0.87678015,0.46229437,0.0047572744,0.095009886,25,3000000000.0
27088,1.3544043879134686e-07,0.8780536,0.45975065,0.004284812,0.09277265,25,3000000000.0
27089,1.3544629202067958e-07,0.8795232,0.45680076,0.0035814747999999997,0.08974906,25,3000000000.0
27090,1.354506809225826e-07,0.8804423000000001,0.45495158,0.0030132590000000003,0.08752775,25,3000000000.0
27091,1.3545506978705206e-07,0.8811985999999999,0.45343253,0.0024224992000000003,0.08537534,25,3000000000.0
27092,1.3546092201758415e-07,0.8819491,0.4519369000000001,0.0016191778,0.082604386,25,3000000000.0
27093,1.3546531130399953e-07,0.8823191999999999,0.45121586,0.0010193859,0.08126801,25,3000000000.0
27094,1.3547116193497586e-07,0.88256156,0.45077893,0.00024384103,0.08420844400000001,25,3000000000.0
27095,1.3547555094756196e-07,0.88256294,0.45082852,-0.0003069771,0.0867043,25,3000000000.0
27096,1.3548140386198022e-07,0.88234013,0.45136222,-0.0009827313,0.090360135,25,3000000000.0
27097,1.354857929330658e-07,0.8820187,0.45208082,-0.0014348435,0.09329875,25,3000000000.0
27098,1.3549018208229336e-07,0.8815790000000001,0.45303965,-0.0018323318,0.09635872,25,3000000000.0
27099,1.3549603462259365e-07,0.8808348,0.4546332,-0.002267499,0.10054291,25,3000000000.0
27100,1.3550042433080127e-07,0.8801794,0.45601709999999995,-0.0025170657,0.10368118,25,3000000000.0
27101,1.3550627555265688e-07,0.8792101999999999,0.45803875,-0.0027417983000000003,0.107742205,25,3000000000.0
27102,1.3551066467700697e-07,0.87843585,0.45963573,-0.0028276064,0.11060545,25,3000000000.0
27103,1.35515053925659e-07,0.8776424999999999,0.46125674,-0.0028424590000000003,0.113226965,25,3000000000.0
27104,1.3552090726448892e-07,0.87658936,0.46338674,-0.0027543916,0.11620602,25,3000000000.0
27105,1.355252962875116e-07,0.87582856,0.46491063,-0.002611065,0.117952146,25,3000000000.0
27106,1.355311493090415e-07,0.8748879999999999,0.4667771,-0.0023246384,0.11949403,25,3000000000.0
27107,1.3553553877757865e-07,0.87426096,0.46801040000000005,-0.0020452226,0.11998901,25,3000000000.0
27108,1.3554138969449924e-07,0.8735593,0.4693785,-0.0015987239000000001,0.11971832,25,3000000000.0
27109,1.3554577880962213e-07,0.87315124,0.47016683,-0.0012176064,0.11882618,25,3000000000.0
27110,1.3555016825774386e-07,0.872857,0.47072983,-0.0008056566599999999,0.117393166,25,3000000000.0
27111,1.355560221249114e-07,0.87265545,0.47110566,-0.00022293255,0.11478521,25,3000000000.0
27112,1.355604118416992e-07,0.8726545,0.47109494,0.0002276848,0.11245518,25,3000000000.0
27113,1.3556626496013264e-07,0.87285686,0.47068474,0.0008297782,0.10911423,25,3000000000.0
27114,1.3557065404714165e-07,0.8731598,0.47008356,0.0012707341,0.106622286,25,3000000000.0
27115,1.3557504311978472e-07,0.8735873,0.46923926,0.0016930742000000002,0.104296744,25,3000000000.0
27116,1.3558089341198982e-07,0.87433755,0.4677585999999999,0.0022129233,0.10165379,25,3000000000.0
27117,1.3558528264994807e-07,0.8750226999999999,0.46640438,0.0025607164000000003,0.10012578,25,3000000000.0
27118,1.3559113600311483e-07,0.8760754999999999,0.4643165,0.0029551246999999998,0.09877201,25,3000000000.0
27119,1.3559552500930856e-07,0.87695,0.46257420000000005,0.0031910946,0.09826784,25,3000000000.0
27120,1.3560137807119727e-07,0.8781984,0.46007299999999995,0.0034167033,0.09819977,25,3000000000.0
27121,1.3560576726186405e-07,0.8791733,0.45810714,0.0035141732000000003,0.09850995,25,3000000000.0
27122,1.3561015647844046e-07,0.88016105,0.4561035,0.0035472165000000003,0.099032186,25,3000000000.0
27123,1.3561600692288995e-07,0.88146585,0.45343766,0.0034886646999999996,0.09989594,25,3000000000.0
27124,1.3562039542574705e-07,0.88241184,0.45149040000000007,0.0033675190000000002,0.10055598,25,3000000000.0
27125,1.3562624747651431e-07,0.8835964,0.449035,0.0031050164,0.10129781,25,3000000000.0
27126,1.35630636127847e-07,0.88440496,0.44734678,0.002835464,0.10167434,25,3000000000.0
27127,1.3563502448368249e-07,0.8851281999999999,0.44582886,0.0025074573,0.1018492,25,3000000000.0
27128,1.3564087674704716e-07,0.8859353999999999,0.444125,0.0019869457,0.10173482,25,3000000000.0
27129,1.3564526565069767e-07,0.8864068000000002,0.44312537,0.0015414316,0.10138559,25,3000000000.0
27130,1.3565111589516196e-07,0.88683665,0.44221145,0.0008862864300000001,0.10059694,25,3000000000.0
27131,1.356555048431568e-07,0.886999,0.4418665,0.00035813532,0.09980805,25,3000000000.0
27132,1.3566135732398135e-07,0.8869896999999999,0.44188994,-0.00038015444,0.098572955,25,3000000000.0
27133,1.356657466200409e-07,0.8868075000000001,0.4422829000000001,-0.00094865664,0.09757769999999999,25,3000000000.0
27134,1.35670135854686e-07,0.8864725,0.4430024,-0.0015203403,0.096582726,25,3000000000.0
27135,1.3567598884775993e-07,0.8857876,0.44446720000000006,-0.0022726653,0.095347315,25,3000000000.0
27136,1.356803782246643e-07,0.88509786,0.44593522,-0.0028181938,0.094546966,25,3000000000.0
27137,1.3568622873658456e-07,0.88395154,0.44835973,-0.0035045059999999997,0.09371305,25,3000000000.0
27138,1.3569061786893267e-07,0.88292915,0.45050517,-0.003978408,0.09329171,25,3000000000.0
27139,1.356950067615672e-07,0.88177747,0.45290434,-0.004408836,0.09305082,25,3000000000.0
27140,1.357008592699376e-07,0.8800585999999999,0.45644933,-0.0049034646,0.09300783,25,3000000000.0
27141,1.3570524812067216e-07,0.87864906,0.45932525,-0.005207084,0.09316686,25,3000000000.0
27142,1.3571110071752223e-07,0.87663686,0.46338263,-0.005512554,0.09359833,25,3000000000.0
27143,1.357154895915232e-07,0.87505054,0.46654183,-0.0056618573,0.09405956,25,3000000000.0
27144,1.3572133928544623e-07,0.8728689000000001,0.47083122,-0.005749069,0.09481303,25,3000000000.0
27145,1.3572572812124453e-07,0.87120795,0.47405455,-0.005728431500000001,0.09546307,25,3000000000.0
27146,1.3573011694074106e-07,0.86954993,0.47723588,-0.0056333877,0.09616523,25,3000000000.0
27147,1.3573596972174705e-07,0.8673822,0.48134136,-0.005392056,0.09716324,25,3000000000.0
27148,1.357403589515656e-07,0.8658181,0.48426563,-0.0051275096,0.09794593,25,3000000000.0
27149,1.357462117320675e-07,0.8638574,0.4878862,-0.004669078,0.09902495,25,3000000000.0
27150,1.3575060116621845e-07,0.8625088,0.4903465,-0.004251401,0.09985888,25,3000000000.0
27151,1.3575645215791276e-07,0.8609121,0.49322522,-0.0036060929,0.10099558,25,3000000000.0
27152,1.3576084084290392e-07,0.85988945,0.49504715,-0.0030636017,0.10187029,25,3000000000.0
27153,1.3576522925744797e-07,0.85903525,0.49655294,-0.0024786978,0.10275909,25,3000000000.0
27154,1.3577108132449192e-07,0.85818166,0.49803504,-0.0016457657,0.10395898,25,3000000000.0
27155,1.3577546961024805e-07,0.85776955,0.4987326,-0.0009919242,0.1048586,25,3000000000.0
27156,1.3578132175944936e-07,0.8575378,0.4990917,-9.699353000000001e-05,0.10603313,25,3000000000.0
27157,1.3578571051621028e-07,0.85760736,0.49892650000000005,0.0005801911,0.106875144,25,3000000000.0
27158,1.3579009882219136e-07,0.8578853000000001,0.49838892,0.0012528553,0.10766346,25,3000000000.0
27159,1.3579594912587564e-07,0.85857385,0.49710205,0.0021279524,0.10860511,25,3000000000.0
27160,1.3580033807380732e-07,0.8593200999999999,0.49572176,0.0027574821999999995,0.109213255,25,3000000000.0
27161,1.3580619065425274e-07,0.8606016,0.49335608,0.0035460782,0.10987132,25,3000000000.0
27162,1.3581057952114052e-07,0.8617600000000001,0.49121356,0.004089901,0.11024522,25,3000000000.0
27163,1.3581643260108145e-07,0.8635376,0.48791012,0.004739301,0.11057845,25,3000000000.0
27164,1.3582082174120155e-07,0.8650213,0.4851345,0.0051619806,0.110708535,25,3000000000.0
27165,1.358252108422469e-07,0.86661226,0.48213765,0.005524141,0.11074036,25,3000000000.0
27166,1.3583106107298883e-07,0.86886305,0.47785792,0.0059060613,0.11063352,25,3000000000.0
27167,1.3583545037232664e-07,0.8706215,0.47448024,0.00611319,0.110451445,25,3000000000.0
27168,1.358413028983215e-07,0.8730176,0.46982688,0.006279929,0.11007824,25,3000000000.0
27169,1.3584569193447658e-07,0.8748256,0.46627602,0.006321899000000001,0.10970541,25,3000000000.0
27170,1.3585008101001033e-07,0.8766199,0.46271735,0.006292915,0.109255895,25,3000000000.0
27171,1.3585593411298395e-07,0.87895715,0.45802844,0.006146050500000001,0.10854460000000002,25,3000000000.0
27172,1.3586032305466886e-07,0.8806447000000001,0.45460576,0.0059576323,0.10792606,25,3000000000.0
27173,1.3586617388159986e-07,0.88277566,0.45023894,0.00560807,0.10700135,25,3000000000.0
27174,1.358705634726127e-07,0.8842662,0.44715586,0.0052771745,0.106239624,25,3000000000.0
27175,1.3587641631393134e-07,0.88608456,0.44336504,0.0047535077,0.10515488,25,3000000000.0
27176,1.3588080577279253e-07,0.8873072,0.44080020000000003,0.004305970399999999,0.10430475,25,3000000000.0
27177,1.3588519531782176e-07,0.88839877,0.43850259999999996,0.0038180659,0.103442475,25,3000000000.0
27178,1.3589104836486333e-07,0.8896375,0.43589258,0.0031157602,0.102307774,25,3000000000.0
27179,1.3589543765453765e-07,0.89039636,0.43429825,0.0025589773,0.101496845,25,3000000000.0
27180,1.3590128852987875e-07,0.8911743000000001,0.43268132,0.0017897639,0.10051322,25,3000000000.0
27181,1.3590567806083255e-07,0.8915798,0.43185988,0.0012014357,0.09987921,25,3000000000.0
27182,1.359100669079948e-07,0.89183164,0.43137829999999994,0.000611274,0.099359,25,3000000000.0
27183,1.359159193381309e-07,0.89193016,0.43126205,-0.00016696834,0.09887351,25,3000000000.0
27184,1.3592030839973102e-07,0.89182895,0.43156195,-0.0007356013,0.09868192,25,3000000000.0
27185,1.3592616124548955e-07,0.8914673000000001,0.43245855,-0.0014621277,0.09867828,25,3000000000.0
27186,1.3593055024783703e-07,0.89103246,0.43348482,-0.0019757382,0.09886626,25,3000000000.0
27187,1.3593640103404448e-07,0.8902472,0.43529007,-0.0026090164,0.09936681,25,3000000000.0
27188,1.3594079044090518e-07,0.8895136999999999,0.43694449999999996,-0.0030396765000000004,0.09992105,25,3000000000.0
27189,1.3594517970822516e-07,0.888666,0.43882948,-0.003427883,0.100612365,25,3000000000.0
27190,1.35951031949951e-07,0.8873755999999999,0.44165540000000003,-0.00387396,0.10171309,25,3000000000.0
27191,1.3595542116138047e-07,0.8863019,0.44397306,-0.0041516623,0.10264339,25,3000000000.0
27192,1.3596127471204265e-07,0.8847511,0.44727233,-0.0044429265,0.1039653,25,3000000000.0
27193,1.3596566391982893e-07,0.8835158000000001,0.44986358,-0.0046008229999999995,0.10497471,25,3000000000.0
27194,1.359700529802904e-07,0.88223326,0.4525217000000001,-0.004706628,0.10596045,25,3000000000.0
27195,1.3597590306909533e-07,0.88047427,0.45611745,-0.004767612,0.107180916,25,3000000000.0
27196,1.359802920256839e-07,0.8791353999999999,0.45881703,-0.004754877,0.10798083,25,3000000000.0
27197,1.3598614431998345e-07,0.87735146,0.4623667,-0.0046634614,0.10883966,25,3000000000.0
27198,1.359905333515504e-07,0.87603235,0.46495757,-0.004542315,0.10929853,25,3000000000.0
27199,1.3599638674354177e-07,0.8743236999999999,0.46827248,-0.0043164003,0.10964442,25,3000000000.0
27200,1.3600077628887146e-07,0.8730964,0.4706251,-0.004103294600000001,0.10969888,25,3000000000.0
27201,1.360051655509695e-07,0.87192845,0.47284213,-0.0038570872999999996,0.109592654,25,3000000000.0
27202,1.360110159785989e-07,0.8704816999999999,0.47555843,-0.00348471,0.1092313,25,3000000000.0
27203,1.3601540443018673e-07,0.8694909,0.47739923,-0.0031779588,0.108838566,25,3000000000.0
27204,1.3602125579326078e-07,0.8683101000000001,0.47957116,-0.0027410553,0.10821673,25,3000000000.0
27205,1.360256448809301e-07,0.8675373,0.4809784000000001,-0.0023983998999999997,0.107722245,25,3000000000.0
27206,1.360300339211056e-07,0.8668658000000001,0.48218999999999995,-0.0020480473,0.10724163,25,3000000000.0
