,# t (s),mx (),my (),mz (),MaxAngle (rad),phi (degree),f_RF (GHz)
351001,1.755005859896904e-06,0.7305995,-0.6722943,-0.00039472667,0.1074219,325,3000000000.0
351002,1.7550102654830089e-06,0.73128444,-0.6715566999999999,-0.0024535025,0.107189834,325,3000000000.0
351003,1.7550161375748356e-06,0.7334934000000001,-0.669126,-0.0050753796999999995,0.10672082,325,3000000000.0
351004,1.755020538444014e-06,0.7360639,-0.6662636,-0.006919273599999999,0.10625592,325,3000000000.0
351005,1.7550264038206386e-06,0.7405994,-0.66114646,-0.009173647,0.10552166,325,3000000000.0
351006,1.7550308011225305e-06,0.7447394,-0.6564045999999999,-0.01068493,0.10492635,325,3000000000.0
351007,1.7550351967031345e-06,0.7494217,-0.6509606,-0.012021852,0.104296744,325,3000000000.0
351008,1.7550410542315098e-06,0.75635296,-0.64274096,-0.013505951499999998,0.103425734,325,3000000000.0
351009,1.7550454476990962e-06,0.7619482,-0.6359609,-0.01437912,0.10278407,325,3000000000.0
351010,1.7550513071094108e-06,0.76975554,-0.6262757,-0.0152051225,0.10202082,325,3000000000.0
351011,1.7550556998756824e-06,0.77574164,-0.6186647,-0.015562744,0.101555064,325,3000000000.0
351012,1.7550600925163456e-06,0.7817371,-0.6108733000000001,-0.015693272,0.10117102,325,3000000000.0
351013,1.755065949018441e-06,0.78959113,-0.6003991,-0.015516138,0.10073987400000001,325,3000000000.0
351014,1.7550703409058426e-06,0.7952691,-0.59262836,-0.015125999,0.10045261,325,3000000000.0
351015,1.7550761947257427e-06,0.8024131999999999,-0.58260125,-0.014278783,0.10009477,325,3000000000.0
351016,1.7550805855601712e-06,0.80736953,-0.57547307,-0.013412958,0.09980865,325,3000000000.0
351017,1.7550864410093815e-06,0.81333685,-0.5666945999999999,-0.011979077,0.09928747,325,3000000000.0
351018,1.755090830921746e-06,0.81726986,-0.56078625,-0.010717398000000001,0.09871337,325,3000000000.0
351019,1.7550952210668824e-06,0.8206986,-0.55555284,-0.009317546999999999,0.09794167,325,3000000000.0
351020,1.7551010742770725e-06,0.8244365,-0.5497569999999999,-0.007273816999999999,0.09656110000000001,325,3000000000.0
351021,1.7551054646078068e-06,0.8265884,-0.5463768,-0.0056377724,0.0952402,325,3000000000.0
351022,1.7551113151284638e-06,0.8285623,-0.5432486,-0.0033661592999999997,0.09304889999999999,325,3000000000.0
351023,1.7551157051560517e-06,0.8293646000000001,-0.54197127,-0.0016251269,0.09140305,325,3000000000.0
351024,1.755120094429142e-06,0.8295838,-0.54162526,0.00011920424,0.09397893,325,3000000000.0
351025,1.7551259483741646e-06,0.8289783000000002,-0.542603,0.0024086582000000002,0.09729586,325,3000000000.0
351026,1.755130338108395e-06,0.8278638,-0.5443876,0.0040667590000000005,0.09961944,325,3000000000.0
351027,1.7551361917095417e-06,0.8255271999999999,-0.5480961,0.0061563025,0.10242035,325,3000000000.0
351028,1.7551405811487706e-06,0.8231655000000001,-0.5518036999999999,0.0076046917,0.10422057,325,3000000000.0
351029,1.7551464316383254e-06,0.819258,-0.55785185,0.009340914,0.10608212,325,3000000000.0
351030,1.755150821211171e-06,0.8158008000000001,-0.56311697,0.010476013000000001,0.10699800400000001,325,3000000000.0
351031,1.7551552104130737e-06,0.81193817,-0.5689069999999999,0.011451366999999999,0.107453026,325,3000000000.0
351032,1.7551610640026634e-06,0.8062371,-0.57728106,0.012483757,0.107315116,325,3000000000.0
351033,1.7551654534682888e-06,0.8016189,-0.58392024,0.013045382,0.106633484,325,3000000000.0
351034,1.7551713075037e-06,0.79511577,-0.59305984,0.013500445,0.104936585,325,3000000000.0
351035,1.7551756972755752e-06,0.79006594,-0.5999952,0.013618344,0.10307818,325,3000000000.0
351036,1.75518008696426e-06,0.7849448,-0.60688955,0.01354573,0.10074283,325,3000000000.0
351037,1.7551859373323506e-06,0.7781343000000001,-0.61585075,0.013159779,0.09696334599999999,325,3000000000.0
351038,1.7551903260497066e-06,0.77313244,-0.622287,0.012662322,0.093694575,325,3000000000.0
351039,1.755196178449472e-06,0.76674575,-0.6303338,0.011740373,0.08884945,325,3000000000.0
351040,1.7552005670256833e-06,0.762262,-0.63587236,0.010871393,0.085372545,325,3000000000.0
351041,1.7552064192277162e-06,0.75681806,-0.64247864,0.009504127,0.0910327,325,3000000000.0
351042,1.7552108070925403e-06,0.75321656,-0.6467801999999999,0.008344693,0.09536171,325,3000000000.0
351043,1.755215195682046e-06,0.75008535,-0.6504769,0.0070905425,0.09960566,325,3000000000.0
351044,1.7552210447802055e-06,0.74671966,-0.65440774,0.0053062593,0.10488194,325,3000000000.0
351045,1.7552254332182446e-06,0.74484354,-0.65658146,0.003909630999999999,0.10837776,325,3000000000.0
351046,1.755231284295763e-06,0.74324846,-0.6584232,0.0020101864000000003,0.112205796,325,3000000000.0
351047,1.755235673087643e-06,0.7427435,-0.6590096999999999,0.00058464386,0.11435714,325,3000000000.0
351048,1.7552400621607575e-06,0.74282855,-0.6589227,-0.00081881887,0.115855925,325,3000000000.0
351049,1.7552459147294892e-06,0.7438339,-0.65778625,-0.0026216682000000002,0.11686015,325,3000000000.0
351050,1.7552503035960166e-06,0.7452236999999999,-0.6562004,-0.0038981314,0.11692404,325,3000000000.0
351051,1.7552561538283364e-06,0.74785525,-0.6531707,-0.0054667452,0.116228126,325,3000000000.0
351052,1.755260543086657e-06,0.7503555000000001,-0.6502626,-0.006524409,0.11524174,325,3000000000.0
351053,1.7552663964175134e-06,0.75429165,-0.6456284999999999,-0.0077513414,0.11350201,325,3000000000.0
351054,1.7552707858255784e-06,0.7576193,-0.64165694,-0.008520219,0.11201294,325,3000000000.0
351055,1.7552751756687454e-06,0.76120144,-0.63732576,-0.009150581999999999,0.11046442,325,3000000000.0
351056,1.755281029519032e-06,0.7662635999999999,-0.63110346,-0.009766186,0.108427346,325,3000000000.0
351057,1.7552854194787175e-06,0.7701916999999999,-0.62619084,-0.0100553725,0.10698238,325,3000000000.0
351058,1.7552912706506164e-06,0.7754854,-0.61945015,-0.010210645,0.105205975,325,3000000000.0
351059,1.7552956599955998e-06,0.7794236999999999,-0.6143424,-0.010157626,0.10398482,325,3000000000.0
351060,1.7553000484330682e-06,0.7832720999999999,-0.60927224,-0.009964637,0.10284795,325,3000000000.0
351061,1.7553059009332276e-06,0.7881796,-0.602689,-0.009501688000000001,0.10142917,325,3000000000.0
351062,1.755310289122104e-06,0.79163325,-0.5979741999999999,-0.009012119,0.10040505,325,3000000000.0
351063,1.7553161414546273e-06,0.79586554,-0.5921005,-0.00818987,0.09903038,325,3000000000.0
351064,1.755320529668053e-06,0.7987177,-0.5880801999999999,-0.007462445600000001,0.097963,325,3000000000.0
351065,1.7553263792253597e-06,0.8020441999999999,-0.5833264,-0.00637093,0.09645903,325,3000000000.0
351066,1.7553307678722526e-06,0.8041588000000001,-0.5802666999999999,-0.005479454,0.09525398,325,3000000000.0
351067,1.7553351569610336e-06,0.8059321999999999,-0.5776769,-0.0045424476,0.09397512,325,3000000000.0
351068,1.755341008957698e-06,0.8077529,-0.574994,-0.0032490033,0.09215356400000001,325,3000000000.0
351069,1.7553453985026851e-06,0.8087078000000001,-0.57357615,-0.002265556,0.09070493,325,3000000000.0
351070,1.75535125168883e-06,0.8094380999999999,-0.5724838000000001,-0.00096499047,0.0886827,325,3000000000.0
351071,1.755355641826004e-06,0.80958825,-0.57225424,-1.6191212e-05,0.08721832,325,3000000000.0
351072,1.7553600316818905e-06,0.8094104999999999,-0.5725126,0.0008946884,0.08931642,325,3000000000.0
351073,1.7553658833785833e-06,0.80869085,-0.57357377,0.0020286893,0.091907755,325,3000000000.0
351074,1.75537027333056e-06,0.80781347,-0.5748665,0.0028048619,0.09369522,325,3000000000.0
351075,1.755376127033271e-06,0.8062373,-0.5771795,0.0037221932,0.09585185,325,3000000000.0
351076,1.7553805165087502e-06,0.8047843000000001,-0.57929903,0.004311607,0.0972885,325,3000000000.0
351077,1.7553863695494541e-06,0.8025406999999999,-0.5825471,0.0049546263,0.09893327,325,3000000000.0
351078,1.755390757911697e-06,0.80066985,-0.5852324999999999,0.005324059,0.099946134,325,3000000000.0
351079,1.7553951467992958e-06,0.79867417,-0.5880741,0.005594163,0.10075291,325,3000000000.0
351080,1.7554009972899094e-06,0.79587996,-0.59201306,0.0057985988,0.10148037,325,3000000000.0
351081,1.7554053861921532e-06,0.79372966,-0.595014,0.005836627,0.10174596,325,3000000000.0
351082,1.755411238088802e-06,0.7908582,-0.5989807,0.0057389680000000005,0.10170839999999999,325,3000000000.0
351083,1.7554156265712533e-06,0.78874665,-0.60186857,0.0055603464,0.10137794,325,3000000000.0
351084,1.7554200151739133e-06,0.7867089,-0.6046335,0.005298008000000001,0.10078609,325,3000000000.0
351085,1.7554258681197296e-06,0.78415996,-0.60806197,0.004830541,0.09959187,325,3000000000.0
351086,1.7554302568638146e-06,0.78241265,-0.6103939,0.004402774,0.09839959,325,3000000000.0
351087,1.7554361072339966e-06,0.78034955,-0.6131295999999999,0.0037474992999999997,0.09643117,325,3000000000.0
351088,1.7554404954997933e-06,0.7790288000000001,-0.61487246,0.0032053958,0.09468639999999999,325,3000000000.0
351089,1.755446348016676e-06,0.7776001,-0.6167523,0.002435267,0.09202977,325,3000000000.0
351090,1.7554507368776612e-06,0.77679235,-0.61781514,0.0018366305999999999,0.09284018,325,3000000000.0
351091,1.7554551253766873e-06,0.7762171999999999,-0.6185751,0.0012322081,0.0953398,325,3000000000.0
351092,1.7554609790438026e-06,0.77581275,-0.6191199000000001,0.00043565712999999996,0.09855720400000001,325,3000000000.0
351093,1.7554653677300175e-06,0.77577555,-0.61918503,-0.00014073518,0.10080564,325,3000000000.0
351094,1.7554712176046458e-06,0.7760626,-0.61883765,-0.00086262793,0.10347999,325,3000000000.0
351095,1.7554756065856568e-06,0.776512,-0.6182736999999999,-0.0013577524,0.10517305,325,3000000000.0
351096,1.755481458995367e-06,0.77738875,-0.617159,-0.0019407638000000001,0.10694051,325,3000000000.0
351097,1.755485847898901e-06,0.7782259,-0.616085,-0.0023112348,0.10786019999999999,325,3000000000.0
351098,1.7554902374846428e-06,0.7791903,-0.61483955,-0.0026182905,0.10842349400000001,325,3000000000.0
351099,1.7554960913557694e-06,0.78062797,-0.61296827,-0.0029216905,0.108630404,325,3000000000.0
351100,1.75550048044342e-06,0.78178376,-0.61145264,-0.0030659216,0.10841137,325,3000000000.0
351101,1.7555063310883571e-06,0.7833745,-0.6093505,-0.0031446621000000004,0.10769951,325,3000000000.0
351102,1.7555107210897366e-06,0.7845691,-0.6077596,-0.0031187623,0.10691537,325,3000000000.0
351103,1.7555151105685653e-06,0.7857341,-0.6061978,-0.0030217338000000002,0.10598807,325,3000000000.0
351104,1.7555209633101933e-06,0.7871968,-0.6042215,-0.0027868745,0.10463856,325,3000000000.0
351105,1.7555253526410134e-06,0.78819466,-0.60286295,-0.0025371334,0.10362185,325,3000000000.0
351106,1.7555312071527905e-06,0.78935254,-0.60127455,-0.0021162825,0.10236846,325,3000000000.0
351107,1.755535596769119e-06,0.7900665,-0.60028696,-0.0017435075,0.10156447,325,3000000000.0
351108,1.755541448184521e-06,0.7907831,-0.599286,-0.0011846725,0.10074106,325,3000000000.0
351109,1.7555458373268684e-06,0.79112846,-0.5987956,-0.00072981435,0.10033248,325,3000000000.0
351110,1.755550226769139e-06,0.7912996,-0.59854364,-0.00025416134,0.10011266,325,3000000000.0
351111,1.7555560795574574e-06,0.7912475,-0.5985925999999999,0.000396452,0.10010431,325,3000000000.0
351112,1.755560468927359e-06,0.79099613,-0.5989213000000001,0.0008845533599999999,0.100288436,325,3000000000.0
351113,1.755566323352214e-06,0.7903815,-0.59974355,0.0015181026000000001,0.10072625,325,3000000000.0
351114,1.7555707123104941e-06,0.78971857,-0.600636,0.001968258,0.101150356,325,3000000000.0
351115,1.7555751015278256e-06,0.78889257,-0.60174966,0.0023876263,0.10160326,325,3000000000.0
351116,1.755580952726703e-06,0.78755933,-0.60354555,0.0028850415000000003,0.10216878,325,3000000000.0
351117,1.755585341133645e-06,0.7864053000000001,-0.60509586,0.0032025918,0.102498434,325,3000000000.0
351118,1.7555911931324642e-06,0.78469604,-0.6073829000000001,0.0035402698,0.1027248,325,3000000000.0
351119,1.7555955820018677e-06,0.7833135999999999,-0.60922366,0.0037226259999999997,0.10268701,325,3000000000.0
351120,1.7556014349957085e-06,0.78137994,-0.61178374,0.0038639828999999996,0.10231128,325,3000000000.0
351121,1.7556058232685973e-06,0.7798951,-0.61373764,0.0038903544,0.10177413,325,3000000000.0
351122,1.7556102125165677e-06,0.77840924,-0.6156826999999999,0.0038470873,0.10101568,325,3000000000.0
351123,1.7556160635794945e-06,0.77647346,-0.6182005,0.0036813009999999997,0.099696726,325,3000000000.0
351124,1.7556204516927105e-06,0.7750906,-0.61998826,0.0034776890000000004,0.09851176,325,3000000000.0
351125,1.7556263026550403e-06,0.7733885,-0.6221759,0.0031056334,0.09674515,325,3000000000.0
351126,1.7556306907586064e-06,0.77225107,-0.62362987,0.0027563015000000002,0.09534293,325,3000000000.0
351127,1.755635079087991e-06,0.771259,-0.62489325,0.0023522804999999997,0.09392619999999999,325,3000000000.0
351128,1.7556409322615638e-06,0.7701981999999999,-0.6262388000000001,0.0017387915,0.09211987,325,3000000000.0
351129,1.7556453205243668e-06,0.76962346,-0.626966,0.00123186,0.09312905,325,3000000000.0
351130,1.7556511713566242e-06,0.769179,-0.62752795,0.00050787564,0.09399036,325,3000000000.0
351131,1.7556555601544873e-06,0.7691009,-0.6276276,-6.0622925999999996e-05,0.09426243,325,3000000000.0
351132,1.7556614102258789e-06,0.7693496999999999,-0.6273164999999999,-0.00083594135,0.09412744,325,3000000000.0
351133,1.7556657986320858e-06,0.76980376,-0.62674606,-0.0014192816,0.09366527,325,3000000000.0
351134,1.7556701878379345e-06,0.77048475,-0.6258878000000001,-0.0019944094,0.09291216,325,3000000000.0
351135,1.7556760411168946e-06,0.77173513,-0.6243065,-0.002733442,0.091499,325,3000000000.0
351136,1.7556804301309669e-06,0.77291554,-0.6228063,-0.0032558118,0.09016043,325,3000000000.0
351137,1.7556862804071914e-06,0.77478546,-0.62041634,-0.0038948075,0.08946464,325,3000000000.0
351138,1.755690669231836e-06,0.77638733,-0.61835515,-0.004321854,0.09053104,325,3000000000.0
351139,1.7556950574518437e-06,0.7781366,-0.61609006,-0.0046967985,0.09176932,325,3000000000.0
351140,1.7557009085426338e-06,0.78065825,-0.6127975999999999,-0.0051061437,0.09362447,325,3000000000.0
351141,1.7557052981474785e-06,0.7826595000000001,-0.61016166,-0.00533924,0.095119774,325,3000000000.0
351142,1.7557111515800732e-06,0.7854234999999999,-0.6064866,-0.005544570699999999,0.09717921,325,3000000000.0
351143,1.7557155400244522e-06,0.787532,-0.6036560000000001,-0.005616265,0.098718815,325,3000000000.0
351144,1.7557213910253017e-06,0.7903391,-0.59984994,-0.005599801999999999,0.10069957,325,3000000000.0
351145,1.7557257804231545e-06,0.79240716,-0.59701836,-0.0055032624,0.10208751,325,3000000000.0
351146,1.7557301696214031e-06,0.7944135,-0.5942484,-0.0053356607,0.10336164,325,3000000000.0
351147,1.7557360213119916e-06,0.7969496,-0.59071445,-0.0050053545,0.104850054,325,3000000000.0
351148,1.7557404117460011e-06,0.7987186,-0.58822817,-0.0046814084,0.105791815,325,3000000000.0
351149,1.7557462672805405e-06,0.8008586,-0.5851965,-0.004155688,0.10680136,325,3000000000.0
351150,1.7557506579245227e-06,0.8022744,-0.5831765,-0.0036978320000000003,0.10737464,325,3000000000.0
351151,1.755755048158776e-06,0.8035100000000001,-0.5814048,-0.003191967,0.1077954,325,3000000000.0
351152,1.7557609012763732e-06,0.8048534,-0.5794706000000001,-0.002454149,0.10812896,325,3000000000.0
351153,1.7557652904788888e-06,0.8056180000000001,-0.5783669,-0.0018625461,0.10821784,325,3000000000.0
351154,1.7557711429174897e-06,0.8062975,-0.57738715,-0.0010370153,0.108128406,325,3000000000.0
351155,1.7557755328481827e-06,0.8065448000000001,-0.5770348000000001,-0.0004004801,0.10791113,325,3000000000.0
351156,1.7557813875457267e-06,0.80651885,-0.5770851,0.00045617844000000004,0.10742246,325,3000000000.0
351157,1.7557857769752048e-06,0.8062324000000001,-0.57751274,0.0010937327,0.10690196,325,3000000000.0
351158,1.7557901666429536e-06,0.80572,-0.5782691,0.0017183991,0.10624862,325,3000000000.0
351159,1.7557960181332486e-06,0.8046943,-0.579771,0.0025175964,0.105164535,325,3000000000.0
351160,1.755800407281339e-06,0.80367804,-0.58124876,0.0030823540000000003,0.10419306,325,3000000000.0
351161,1.755806257834385e-06,0.8020143,-0.58365023,0.0037757835999999998,0.10269689,325,3000000000.0
351162,1.755810646400777e-06,0.80055135,-0.5857451,0.004243272,0.10143918,325,3000000000.0
351163,1.7558150343469857e-06,0.79892135,-0.58806163,0.004659343,0.10008403,325,3000000000.0
351164,1.7558208872523631e-06,0.7965173000000001,-0.59144574,0.0051261396,0.09817241,325,3000000000.0
351165,1.7558252753275642e-06,0.79456836,-0.5941619,0.005404883,0.09669947599999999,325,3000000000.0
351166,1.755831125806257e-06,0.79181546,-0.59795827,0.005675916,0.09475194,325,3000000000.0
351167,1.7558355143736591e-06,0.789665,-0.600892,0.005801196999999999,0.0933512,325,3000000000.0
351168,1.755841364744258e-06,0.7867308000000001,-0.604851,0.0058624194999999995,0.09163849,325,3000000000.0
351169,1.7558457546946582e-06,0.78451174,-0.60781264,0.005829115,0.090517856,325,3000000000.0
351170,1.755850144142817e-06,0.7823064999999999,-0.6107283,0.005729081600000001,0.089580655,325,3000000000.0
351171,1.7558559972377549e-06,0.7794321999999999,-0.6144892,0.005495486999999999,0.088660486,325,3000000000.0
351172,1.7558603861171555e-06,0.7773594,-0.6171739,0.0052490574,0.08825026,325,3000000000.0
351173,1.7558662377481709e-06,0.7747519,-0.6205198000000001,0.0048328573,0.08821577,325,3000000000.0
351174,1.7558706260142316e-06,0.772943,-0.6228206999999999,0.0044610946999999995,0.08830773,325,3000000000.0
351175,1.7558750141183246e-06,0.7712829000000001,-0.62491816,0.004044174,0.088768125,325,3000000000.0
351176,1.7558808638034153e-06,0.76933277,-0.6273651,0.0034284303,0.089766346,325,3000000000.0
351177,1.7558852517392475e-06,0.76808745,-0.6289186,0.0029298803000000003,0.09077794,325,3000000000.0
351178,1.7558911037320641e-06,0.76674014,-0.6305911,0.002228925,0.09241939,325,3000000000.0
351179,1.7558954920585301e-06,0.76597655,-0.63153535,0.0016852971,0.09382382,325,3000000000.0
351180,1.7559013426945069e-06,0.7652979999999999,-0.63237274,0.0009499491,0.09585621,325,3000000000.0
351181,1.7559057315214474e-06,0.7650455,-0.6326839,0.0003994721,0.097441785,325,3000000000.0
351182,1.7559101198610473e-06,0.765011,-0.6327262,-0.0001423939,0.09903339,325,3000000000.0
351183,1.75591597161557e-06,0.76529527,-0.63237524,-0.0008404342,0.10109013,325,3000000000.0
351184,1.7559203608140992e-06,0.7657455,-0.63181853,-0.0013377217,0.10253222,325,3000000000.0
351185,1.7559262144722154e-06,0.7666408,-0.63070804,-0.0019553222,0.10425036,325,3000000000.0
351186,1.7559306035966152e-06,0.76751506,-0.6296194,-0.0023778507,0.10534778,325,3000000000.0
351187,1.755936455252982e-06,0.7689206999999999,-0.62786037,-0.002879168,0.10651021,325,3000000000.0
351188,1.7559408441223701e-06,0.7701318,-0.6263361999999999,-0.003204255,0.10713466,325,3000000000.0
351189,1.755945233782126e-06,0.7714566999999999,-0.62466013,-0.0034828207,0.10754414,325,3000000000.0
351190,1.755951084704672e-06,0.77336454,-0.6222300000000001,-0.0037786003999999997,0.10775273,325,3000000000.0
351191,1.7559554737983035e-06,0.7748762,-0.6202911,-0.003942545,0.10767344400000001,325,3000000000.0
351192,1.7559613282882226e-06,0.7769617,-0.61759657,-0.004083628,0.10729007,325,3000000000.0
351193,1.7559657178398563e-06,0.77855176,-0.6155271,-0.0041320813,0.10683323,325,3000000000.0
351194,1.7559701067962196e-06,0.780143,-0.6134425,-0.0041329353000000004,0.10626548,325,3000000000.0
351195,1.7559759591980854e-06,0.7822371,-0.61067986,-0.004063641,0.10539878,325,3000000000.0
351196,1.7559803489930767e-06,0.78376555,-0.60864943,-0.0039623016,0.10471272,325,3000000000.0
351197,1.755986200295985e-06,0.7857188,-0.60603803,-0.0037675824,0.10381931,325,3000000000.0
351198,1.7559905896734853e-06,0.78710383,-0.6041751999999999,-0.0035815753999999997,0.10320554,325,3000000000.0
351199,1.7559964433625552e-06,0.78882337,-0.6018505000000001,-0.0032879806,0.102509506,325,3000000000.0
351200,1.7560008330403412e-06,0.79000527,-0.6002456,-0.0030392888,0.10210389,325,3000000000.0
351201,1.7560052225501342e-06,0.7910868000000001,-0.5987723,-0.0027711487,0.101807564,325,3000000000.0
