,# t (s),mx (),my (),mz (),MaxAngle (rad),phi (degree),f_RF (GHz)
70201,3.510058527954259e-07,0.47850803,0.87153625,-0.0011550925,0.112335086,65,3000000000.0
70202,3.5101026153368074e-07,0.47721207,0.8722368,-0.0031612883,0.11268228,65,3000000000.0
70203,3.5101613396914077e-07,0.47382522,0.8740564000000001,-0.005679341,0.11315625,65,3000000000.0
70204,3.5102053555486477e-07,0.47011316,0.87603223,-0.007421634599999999,0.113486744,65,3000000000.0
70205,3.5102640409673955e-07,0.46372935,0.87938476,-0.009509946,0.11384304599999999,65,3000000000.0
70206,3.5103080230299283e-07,0.45797563,0.8823572000000001,-0.01087351,0.11405535,65,3000000000.0
70207,3.510351989308237e-07,0.4514977,0.8856484,-0.012044598,0.11422701,65,3000000000.0
70208,3.5104105903685576e-07,0.4419156,0.8904099,-0.013282308,0.11436237,65,3000000000.0
70209,3.5104545365765177e-07,0.43416750000000004,0.89416754,-0.013953921000000001,0.11437178,65,3000000000.0
70210,3.5105131064289276e-07,0.42332524,0.8992891,-0.014493713,0.11425054,65,3000000000.0
70211,3.5105570305758236e-07,0.41497429999999996,0.90312624,-0.014628299999999999,0.11406059,65,3000000000.0
70212,3.5106009519209044e-07,0.4065822,0.9068896000000001,-0.01453239,0.11377639,65,3000000000.0
70213,3.510659525321232e-07,0.39555523,0.9116958000000001,-0.0140549,0.11321377,65,3000000000.0
70214,3.510703439725696e-07,0.3875807,0.91507524,-0.0134465825,0.11261176,65,3000000000.0
70215,3.5107619772845465e-07,0.37757820000000003,0.9192033000000002,-0.012326733000000001,0.11149825,65,3000000000.0
70216,3.5108058837393604e-07,0.37069732,0.9219739,-0.011276418,0.110397354,65,3000000000.0
70217,3.510864407513833e-07,0.3625532,0.9251844000000001,-0.00963327,0.10854296,65,3000000000.0
70218,3.5109083077920985e-07,0.3573325,0.92720747,-0.00824706,0.10685503,65,3000000000.0
70219,3.5109522103046353e-07,0.35295728,0.9288860999999999,-0.006755855,0.10490017,65,3000000000.0
70220,3.5110107544689336e-07,0.34853882,0.93057615,-0.004648348,0.10403764,65,3000000000.0
70221,3.5110546560943664e-07,0.3463392,0.9314277,-0.0030129934000000004,0.10619914,65,3000000000.0
70222,3.5111131852550463e-07,0.34492990000000007,0.9320093,-0.0008102661000000001,0.10886489999999999,65,3000000000.0
70223,3.5111570793823195e-07,0.34501585,0.93203396,0.00082433893,0.11065674,65,3000000000.0
70224,3.511200969463942e-07,0.34606165,0.9317126,0.0024155336,0.11222922,65,3000000000.0
70225,3.5112594750322827e-07,0.34888548,0.93076015,0.00442763,0.11393431,65,3000000000.0
70226,3.5113033664732354e-07,0.35200885,0.92966646,0.005826385999999999,0.11489080000000002,65,3000000000.0
70227,3.511361893208657e-07,0.35738498,0.9277293,0.0075057894,0.11572437,65,3000000000.0
70228,3.5114057775718576e-07,0.36221886,0.9259409,0.008603339,0.11602338400000001,65,3000000000.0
70229,3.5114642936942874e-07,0.3695593,0.92315,0.009824132,0.11602338400000001,65,3000000000.0
70230,3.5115081773932897e-07,0.37560479999999996,0.9207870000000001,0.010543398999999998,0.11577029999999999,65,3000000000.0
70231,3.5115520586868856e-07,0.38199565,0.9182273000000001,0.011085738999999999,0.11534174,65,3000000000.0
70232,3.51161054676436e-07,0.39086276,0.91457087,0.011526126999999999,0.11458206,65,3000000000.0
70233,3.5116544334649463e-07,0.3976365,0.9116957,0.011643177,0.11392854,65,3000000000.0
70234,3.5117129560120125e-07,0.40662578,0.90776926,0.011518973,0.11301046,65,3000000000.0
70235,3.5117568428126323e-07,0.41320127,0.9048158000000002,0.011222821000000001,0.11231381,65,3000000000.0
70236,3.5118007257667215e-07,0.41952673,0.90190834,0.010762003999999999,0.11161604,65,3000000000.0
70237,3.511859250139669e-07,0.42742193,0.8981861999999999,0.009910384,0.11065674,65,3000000000.0
70238,3.5119031361008176e-07,0.4328339,0.89557296,0.009111346999999999,0.109865345,65,3000000000.0
70239,3.5119616428750403e-07,0.439241,0.8924105999999999,0.007861636,0.10859961,65,3000000000.0
70240,3.512005534359023e-07,0.4433674,0.89033175,0.006807929399999999,0.107403,65,3000000000.0
70241,3.512064067246181e-07,0.4478777,0.8880164,0.0052827513,0.10535912,65,3000000000.0
70242,3.512107960199852e-07,0.45047328,0.8866584999999999,0.004074042700000001,0.10342285,65,3000000000.0
70243,3.5121518563796785e-07,0.45237097,0.88564724,0.002831382,0.10302835,65,3000000000.0
70244,3.512210384372233e-07,0.45379949999999997,0.88485837,0.0011558863,0.10909890400000001,65,3000000000.0
70245,3.5122542777396697e-07,0.45404682,0.88469124,-8.9511326e-05,0.11325387,65,3000000000.0
70246,3.51231277775165e-07,0.45330328,0.88502365,-0.0016990575,0.11799315,65,3000000000.0
70247,3.512356670864689e-07,0.45197114,0.8856725000000001,-0.00284619,0.12080092,65,3000000000.0
70248,3.5124005621777683e-07,0.4500121,0.88664097,-0.003923266,0.12287784,65,3000000000.0
70249,3.512459094277497e-07,0.44649807,0.888383,-0.0052253506,0.12442863,65,3000000000.0
70250,3.512502983398712e-07,0.44325268,0.8899851999999999,-0.0060843057,0.12467956,65,3000000000.0
70251,3.5125615067014287e-07,0.43822219999999995,0.89244694,-0.0070526516,0.12391031,65,3000000000.0
70252,3.5126053983056195e-07,0.43400618,0.8944863999999999,-0.007635105,0.12265541,65,3000000000.0
70253,3.5126639029399463e-07,0.42792929999999996,0.89738494,-0.008208237,0.12035395,65,3000000000.0
70254,3.5127077945424123e-07,0.4231235,0.8996415000000001,-0.008481025,0.11835514,65,3000000000.0
70255,3.5127516830048716e-07,0.41819146,0.90192425,-0.008617588,0.116290815,65,3000000000.0
70256,3.5128102056411484e-07,0.41155222,0.9049439,-0.008589799,0.11367502,65,3000000000.0
70257,3.512854096064276e-07,0.40662587,0.90714526,-0.008415946,0.111967064,65,3000000000.0
70258,3.5129126232617634e-07,0.40026984,0.9099368,-0.007990885500000001,0.110186696,65,3000000000.0
70259,3.512956515521792e-07,0.39575523,0.91188705,-0.0075373417,0.109285966,65,3000000000.0
70260,3.513000411336005e-07,0.39153000000000004,0.9136885,-0.0069789280000000006,0.108775996,65,3000000000.0
70261,3.513058917165747e-07,0.38645166,0.9158252,-0.006091235699999999,0.10868097,65,3000000000.0
70262,3.5131028042220976e-07,0.38312462,0.9172101999999999,-0.0053341811999999995,0.10900470599999999,65,3000000000.0
70263,3.5131613307786684e-07,0.3794128,0.9187447,-0.0042292397,0.10985611,65,3000000000.0
70264,3.513205223261373e-07,0.37721565,0.9196514000000001,-0.0033480515999999997,0.110708535,65,3000000000.0
70265,3.5132637559992717e-07,0.37511054,0.92052704,-0.0021316998,0.11197346400000001,65,3000000000.0
70266,3.513307648506743e-07,0.37416520000000003,0.9209318999999999,-0.0012085137,0.11290312,65,3000000000.0
70267,3.51335154205021e-07,0.37376386,0.9211228000000001,-0.00029268189999999997,0.11370917400000001,65,3000000000.0
70268,3.513410045509376e-07,0.37405816,0.92105156,0.00089112046,0.11441773,65,3000000000.0
70269,3.5134539365516177e-07,0.37487584,0.92076254,0.0017334720000000002,0.114544,65,3000000000.0
70270,3.5135124570883343e-07,0.37670723,0.9200801,0.0027709927,0.114012405,65,3000000000.0
70271,3.5135563424664306e-07,0.3785872,0.9193611999999999,0.0034698240000000003,0.11299725599999999,65,3000000000.0
70272,3.5136002259751463e-07,0.38085145,0.9184798000000001,0.0040894486,0.11140017,65,3000000000.0
70273,3.513658740547801e-07,0.38437983,0.9170808000000001,0.004777952,0.10832209,65,3000000000.0
70274,3.513702622897232e-07,0.38733524,0.9158881999999999,0.005182405,0.108848445,65,3000000000.0
70275,3.513761112607164e-07,0.39157364,0.9141475,0.0055636177000000005,0.11189182,65,3000000000.0
70276,3.5138049960572144e-07,0.39489824,0.91275793,0.005727896,0.11377481,65,3000000000.0
70277,3.513863509937673e-07,0.39940634,0.9108405,0.005783781,0.11566086,65,3000000000.0
70278,3.513907392509009e-07,0.40276447,0.9093879,0.0057054963,0.11655404400000001,65,3000000000.0
70279,3.5139512778903987e-07,0.40603808,0.9079516,0.0055281157,0.1169787,65,3000000000.0
70280,3.514009792545907e-07,0.41017583,0.90610784,0.0051468858,0.11682539,65,3000000000.0
70281,3.5140536736303485e-07,0.4130428,0.9048113999999999,0.0047616516,0.116215795,65,3000000000.0
70282,3.514112167960072e-07,0.4164649,0.90324354,0.004132133,0.11486635,65,3000000000.0
70283,3.5141560503374727e-07,0.4186827,0.9022154,0.003585763,0.11357249999999999,65,3000000000.0
70284,3.5142145659768804e-07,0.4211148,0.9010764000000001,0.002779319,0.11167703,65,3000000000.0
70285,3.514258448916676e-07,0.42251462,0.90041494,0.0021314442,0.110275015,65,3000000000.0
70286,3.5143023290901364e-07,0.42353279999999993,0.8999308000000001,0.0014603124,0.10899922,65,3000000000.0
70287,3.514360851555771e-07,0.42428344,0.89957094,0.0005505514599999999,0.10762074599999999,65,3000000000.0
70288,3.514404731546411e-07,0.42439008,0.89951766,-0.00012652001,0.10687403,65,3000000000.0
70289,3.5144632227928226e-07,0.42393786,0.8997294,-0.0009994406,0.10625029999999999,65,3000000000.0
70290,3.5145071070647484e-07,0.42317152,0.9000908000000001,-0.0016173951999999998,0.105995394,65,3000000000.0
70291,3.5145509888968037e-07,0.42206272,0.9006129999999999,-0.0021918835,0.10583414,65,3000000000.0
70292,3.514609500904675e-07,0.420099,0.90153354,-0.0028739988,0.1055771,65,3000000000.0
70293,3.514653386900399e-07,0.41830486,0.9023689,-0.0033119845,0.105205975,65,3000000000.0
70294,3.5147119082431456e-07,0.41555625,0.90363765,-0.0037849462,0.10427269,65,3000000000.0
70295,3.5147557938974344e-07,0.41328236,0.90467685,-0.004049582,0.10313551,65,3000000000.0
70296,3.514814295145459e-07,0.4100536,0.9061355999999999,-0.0042756470000000005,0.104026735,65,3000000000.0
70297,3.514858184575959e-07,0.40754443,0.9072555,-0.004347843,0.10912079,65,3000000000.0
70298,3.514902068483782e-07,0.40501472,0.90837204,-0.0043363073,0.11379791,65,3000000000.0
70299,3.5149605904460284e-07,0.40169203,0.9098191999999999,-0.0041932147,0.119140014,65,3000000000.0
70300,3.5150044774640694e-07,0.39929938,0.910847,-0.0039939946,0.12232613,65,3000000000.0
70301,3.5150630015604393e-07,0.39632636,0.9121068999999999,-0.0036143125,0.12534069,65,3000000000.0
70302,3.515106894298518e-07,0.39431378,0.912948,-0.0032516595000000002,0.12664746,65,3000000000.0
70303,3.515150782131107e-07,0.39252940000000003,0.9136850000000001,-0.0028300937,0.12717254,65,3000000000.0
70304,3.5152092868011303e-07,0.39056137,0.914486,-0.0021903936,0.12679414,65,3000000000.0
70305,3.5152531735642e-07,0.38942844,0.91493946,-0.0016636994,0.12585552,65,3000000000.0
70306,3.515311698182035e-07,0.38841504,0.915335,-0.0009169378999999999,0.123992264,65,3000000000.0
70307,3.5153555878065893e-07,0.38804626,0.91546965,-0.0003364907,0.12232173,65,3000000000.0
70308,3.515414120969341e-07,0.38808927,0.91542983,0.00044561338,0.11997457,65,3000000000.0
70309,3.5154580162829533e-07,0.38852212,0.91523623,0.0010250376,0.11826828,65,3000000000.0
70310,3.515501903401637e-07,0.38929057,0.9149052,0.0015873113,0.11670106,65,3000000000.0
70311,3.5155604115928554e-07,0.39081314,0.91425854,0.002294127,0.11491887,65,3000000000.0
70312,3.5156043074555266e-07,0.3923036,0.91362774,0.0027808712,0.11384882,65,3000000000.0
70313,3.515662836898976e-07,0.39470643,0.9126095,0.0033565613,0.11278561,65,3000000000.0
70314,3.5157067335762845e-07,0.39678028,0.9117267,0.003724196,0.11224625,65,3000000000.0
70315,3.515750631406105e-07,0.39904812,0.91075575,0.0040301773999999995,0.1119057,65,3000000000.0
70316,3.5158091755369503e-07,0.40230775,0.9093485,0.004333982,0.11169521,65,3000000000.0
70317,3.515853078837197e-07,0.40487534,0.90822935,0.0044789515,0.11167382,65,3000000000.0
70318,3.5159115960807993e-07,0.40838036,0.90668553,0.0045575183000000005,0.11174332,65,3000000000.0
70319,3.515955492645509e-07,0.41101545,0.9055122,0.0045293607,0.11180905,65,3000000000.0
70320,3.5160140229095905e-07,0.41445459999999995,0.9039638000000001,0.004376723,0.11182401,65,3000000000.0
70321,3.5160579141329913e-07,0.41692325,0.90284014,0.0041784503999999995,0.11171446,65,3000000000.0
70322,3.516101807760377e-07,0.419253,0.9017699,0.003911820999999999,0.11144467,65,3000000000.0
70323,3.5161603451837806e-07,0.42207910000000004,0.900459,0.0034574590000000004,0.11076409,65,3000000000.0
70324,3.5162042388568e-07,0.42394355,0.89958614,0.0030497375,0.10996207,65,3000000000.0
70325,3.516262755619351e-07,0.4260331,0.8986006,0.002429114,0.10845654,65,3000000000.0
70326,3.516306651164978e-07,0.42727077,0.898013,0.0019152422,0.10698796,65,3000000000.0
70327,3.5163505446590893e-07,0.42820314,0.8975687,0.0013688585,0.10523775,65,3000000000.0
70328,3.516409070515562e-07,0.42894548,0.8972145,0.0006044956,0.10251592,65,3000000000.0
70329,3.5164529658810835e-07,0.42911400000000005,0.8971351000000001,1.5869660000000002e-05,0.10306312,65,3000000000.0
70330,3.516511501633364e-07,0.42881334,0.89728254,-0.00077223964,0.10400204,65,3000000000.0
70331,3.516555392870019e-07,0.42819637,0.89758164,-0.0013537407999999998,0.10464541,65,3000000000.0
70332,3.516613897791743e-07,0.42686660000000004,0.8982233000000001,-0.0020993204999999997,0.10542087,65,3000000000.0
70333,3.5166577821973015e-07,0.4255056,0.89887655,-0.0026253378000000004,0.1059396,65,3000000000.0
70334,3.516701672666603e-07,0.42385295,0.89966565,-0.0031139747999999997,0.10640194,65,3000000000.0
70335,3.516760191701015e-07,0.42123604,0.90090585,-0.0036944964,0.10692599,65,3000000000.0
70336,3.51680408156118e-07,0.41899890000000006,0.90195704,-0.004068147,0.10725109,65,3000000000.0
70337,3.5168626218812325e-07,0.4157088,0.9034876000000001,-0.004473525999999999,0.10758911,65,3000000000.0
70338,3.5169065156665533e-07,0.41305804,0.9047076999999999,-0.004701933,0.107767135,65,3000000000.0
70339,3.5169504061496446e-07,0.4102918,0.9059681,-0.0048618275,0.10787072,65,3000000000.0
70340,3.517008912432812e-07,0.40649354,0.90767777,-0.0049648033,0.10787238,65,3000000000.0
70341,3.517052800443129e-07,0.4036147,0.90895736,-0.004958224000000001,0.10774442,65,3000000000.0
70342,3.517111315241054e-07,0.39981595,0.91062444,-0.0048384354,0.10736741,65,3000000000.0
70343,3.517155202447129e-07,0.39705,0.91182303,-0.00466752,0.10689694,65,3000000000.0
70344,3.5172137325602474e-07,0.39354834,0.9133219000000001,-0.0043370444,0.10598581,65,3000000000.0
70345,3.5172576180502193e-07,0.39111215,0.91435254,-0.004017725,0.105076484,65,3000000000.0
70346,3.5173015031396277e-07,0.3888773,0.91528934,-0.0036428066,0.10397219,65,3000000000.0
70347,3.5173600081241534e-07,0.38626498,0.91637415,-0.0030670457000000003,0.1039653,65,3000000000.0
70348,3.517403892292956e-07,0.38461609999999996,0.91705316,-0.0025870984,0.10641036,65,3000000000.0
70349,3.5174623959937176e-07,0.38287422,0.91776586,-0.0018974734,0.10932585,65,3000000000.0
70350,3.5175062779439213e-07,0.3819316,0.9181495999999999,-0.0013532559,0.11118604,65,3000000000.0
70351,3.5175501618213447e-07,0.38131356,0.91840076,-0.0007951485,0.11272257,65,3000000000.0
70352,3.5176086853884694e-07,0.38100374,0.91852707,-4.3883977999999995e-05,0.11424061,65,3000000000.0
70353,3.51765256639851e-07,0.38115695,0.91846615,0.0005137548400000001,0.114983305,65,3000000000.0
70354,3.517711057647981e-07,0.38186327,0.9181811,0.0012340035,0.115480974,65,3000000000.0
70355,3.517754930584864e-07,0.3827543,0.9178199,0.0017468989,0.11553166,65,3000000000.0
70356,3.5178134318221224e-07,0.3843919,0.9171520000000001,0.002380681,0.115250036,65,3000000000.0
70357,3.517857315497903e-07,0.38592909999999997,0.9165208,0.0028101106,0.11483775,65,3000000000.0
70358,3.5179012047233724e-07,0.38770252,0.9157875,0.0031938406,0.11430386,65,3000000000.0
70359,3.5179597410537923e-07,0.39038455,0.9146685,0.0036262157,0.11347043,65,3000000000.0
70360,3.5180036328275363e-07,0.3925916,0.91373855,0.0038859528,0.11279937599999999,65,3000000000.0
70361,3.518062140644929e-07,0.39573020000000003,0.9124021000000001,0.0041411193,0.1118961,65,3000000000.0
70362,3.518106029783211e-07,0.39818624,0.91134495,0.004262151,0.111231156,65,3000000000.0
70363,3.5181645409345954e-07,0.40152818,0.90989035,0.004328763,0.11038058,65,3000000000.0
70364,3.5182084211236937e-07,0.40403935,0.9087857,0.0043084715,0.10977834,65,3000000000.0
70365,3.5182523051711123e-07,0.40651659999999995,0.90768594,0.004229735,0.10920779,65,3000000000.0
70366,3.518310831689953e-07,0.4097107,0.9062534,0.0040382496,0.108496174,65,3000000000.0
70367,3.518354715320714e-07,0.41198364,0.90522444,0.0038342783,0.1080013,65,3000000000.0
70368,3.5184132217454076e-07,0.4147984,0.9039391999999999,0.0034898976000000003,0.10739076,65,3000000000.0
70369,3.518457110467551e-07,0.41671640000000004,0.90305674,0.0031836121,0.10697065,65,3000000000.0
70370,3.518500999668592e-07,0.41844472,0.9022572,0.0028423009999999998,0.10657971,65,3000000000.0
70371,3.5185595129553525e-07,0.42042404,0.90133697,0.0023430143,0.10611082599999999,65,3000000000.0
70372,3.51860340532993e-07,0.42164728,0.9007662000000001,0.001943337,0.105791815,65,3000000000.0
70373,3.51866194196596e-07,0.42291176,0.9001752000000001,0.0013889006,0.105408415,65,3000000000.0
70374,3.518705834744335e-07,0.42357790000000006,0.89986414,0.0009654364,0.10514693,65,3000000000.0
70375,3.5187643475535993e-07,0.42408770000000007,0.8996279,0.00040264195,0.10483012,65,3000000000.0
70376,3.5188082365403264e-07,0.42419013,0.89958304,-1.0298060000000001e-05,0.104614586,65,3000000000.0
70377,3.518852131004285e-07,0.42405954,0.89964813,-0.00040897122000000004,0.10441176,65,3000000000.0
70378,3.518910647570376e-07,0.42354030000000004,0.89989704,-0.00090893987,0.10416956,65,3000000000.0
70379,3.5189545413715506e-07,0.42290887,0.90019643,-0.0012540461,0.104010664,65,3000000000.0
70380,3.519013083811676e-07,0.42177442,0.90073025,-0.0016663425,0.10383944,65,3000000000.0
70381,3.519056976110123e-07,0.4207287,0.9012189,-0.0019348765,0.10375027,65,3000000000.0
70382,3.519100862506357e-07,0.41953909999999994,0.9017714,-0.002165404,0.103702486,65,3000000000.0
70383,3.519159370612573e-07,0.41776729999999995,0.9025882,-0.0024100428,0.10371573,65,3000000000.0
70384,3.5192032605773113e-07,0.41632923,0.9032459999999999,-0.0025447425,0.10379227,65,3000000000.0
70385,3.519261766166163e-07,0.4143133,0.90416074,-0.0026581157,0.10399401,65,3000000000.0
70386,3.5193056490874405e-07,0.41275853,0.90486073,-0.002693772,0.10422344,65,3000000000.0
70387,3.5193641795782865e-07,0.410674,0.90579164,-0.0026772656,0.10463113,65,3000000000.0
70388,3.519408062996081e-07,0.40913317,0.90647435,-0.0026190246,0.1050077,65,3000000000.0
70389,3.5194519435014966e-07,0.4076362,0.90713334,-0.0025240302,0.10543901,65,3000000000.0
70390,3.5195104490336477e-07,0.40574387,0.9079603,-0.0023451978,0.10608212,65,3000000000.0
70391,3.519554329458778e-07,0.4044263,0.90853196,-0.0021763192,0.10659819999999999,65,3000000000.0
70392,3.51961283004768e-07,0.40283638,0.9092174000000001,-0.0019121226999999998,0.10731567,65,3000000000.0
70393,3.519656718262074e-07,0.40178612,0.9096674000000001,-0.001690041,0.10785909,65,3000000000.0
70394,3.519700610281478e-07,0.40086988,0.910058,-0.0014523876999999999,0.10839264,65,3000000000.0
70395,3.5197591435016523e-07,0.39987013,0.910482,-0.0011191942999999999,0.109069884,65,3000000000.0
70396,3.519803032586959e-07,0.3992932,0.9107253000000001,-0.00086318754,0.10953706,65,3000000000.0
70397,3.519861547655472e-07,0.39875728,0.9109497999999999,-0.0005223901,0.11009072,65,3000000000.0
70398,3.5199054390285456e-07,0.39852813,0.91104454,-0.00027294259999999996,0.11043684,65,3000000000.0
70399,3.5199639435507846e-07,0.39844432,0.91107696,4.3290136e-05,0.11079589999999999,65,3000000000.0
70400,3.520007830804153e-07,0.39853814,0.9110351999999999,0.00026326266,0.110980645,65,3000000000.0
70401,3.520051716243225e-07,0.39875534,0.91094136,0.00046453485,0.11108715,65,3000000000.0
70402,3.520110247385387e-07,0.39921635,0.91074353,0.0006986433,0.11110759,65,3000000000.0
70403,3.520154138423443e-07,0.39967257,0.9105485999999999,0.0008451676,0.11103445,65,3000000000.0
70404,3.520212651470282e-07,0.4003989,0.91023874,0.0009981276,0.11082985,65,3000000000.0
70405,3.52025654196897e-07,0.4010111,0.90997773,0.0010793741,0.11060166,65,3000000000.0
70406,3.5203004338669564e-07,0.40166209999999997,0.90970033,0.0011311251,0.11031943,65,3000000000.0
