,# t (s),mx (),my (),mz (),MaxAngle (rad),phi (degree),f_RF (GHz)
259201,1.29600582665529e-06,-0.5433117,-0.83234435,-0.0042281137,0.10108068,240,3000000000.0
259202,1.2960102378390576e-06,-0.54051816,-0.834152,-0.0059699267,0.100928165,240,3000000000.0
259203,1.2960161122292498e-06,-0.5354542,-0.8373914000000001,-0.008030797,0.10086722,240,3000000000.0
259204,1.2960205168886134e-06,-0.53075826,-0.8403554,-0.009362568,0.10094059,240,3000000000.0
259205,1.2960263856978442e-06,-0.5234802,-0.84487575,-0.010828613,0.10119756,240,3000000000.0
259206,1.2960307853211974e-06,-0.5173895000000001,-0.8485912,-0.01168392,0.10154507,240,3000000000.0
259207,1.2960351833287115e-06,-0.5108768,-0.8524974,-0.012322762,0.10205183,240,3000000000.0
259208,1.2960410467875092e-06,-0.5017295,-0.85786927,-0.012833,0.10296226,240,3000000000.0
259209,1.296045441793888e-06,-0.4946753,-0.8619220999999999,-0.0129600195,0.103805505,240,3000000000.0
259210,1.2960512981047556e-06,-0.48523548,-0.86722547,-0.012796833999999998,0.10513841,240,3000000000.0
259211,1.2960556907789948e-06,-0.47827557,-0.87104946,-0.012435057,0.10629469999999999,240,3000000000.0
259212,1.2960600831813816e-06,-0.47154498,-0.8746792,-0.011880171,0.10757578,240,3000000000.0
259213,1.2960659389533077e-06,-0.46311304,-0.8791343,-0.010864318000000001,0.10941813,240,3000000000.0
259214,1.2960703308931824e-06,-0.45732293,-0.882136,-0.009916958,0.11083686,240,3000000000.0
259215,1.2960761880115222e-06,-0.45048138,-0.88562584,-0.008442612,0.11267487,240,3000000000.0
259216,1.2960805790704409e-06,-0.44610974,-0.8878259000000001,-0.0072065913,0.11394637,240,3000000000.0
259217,1.2960864328566591e-06,-0.4414066,-0.8901723,-0.005427704,0.11541992400000001,240,3000000000.0
259218,1.296090823399905e-06,-0.43878043,-0.8914785,-0.004025813,0.11630879,240,3000000000.0
259219,1.2960952137717595e-06,-0.43695920000000005,-0.89239025,-0.0025928156,0.11696746,240,3000000000.0
259220,1.2961010669683948e-06,-0.43580317,-0.89299244,-0.0006756533,0.11740538,240,3000000000.0
259221,1.296105457637334e-06,-0.43588459999999996,-0.89299023,0.00073675835,0.11737687,240,3000000000.0
259222,1.2961113133023129e-06,-0.4372183,-0.89239955,0.0025428422,0.11688418,240,3000000000.0
259223,1.2961157032833506e-06,-0.4390887,-0.89153415,0.0038110008,0.11622042,240,3000000000.0
259224,1.2961200932778e-06,-0.44164884,-0.8903268,0.0049837283,0.11534226,240,3000000000.0
259225,1.2961259453321836e-06,-0.44602415,-0.88822454,0.0063684112,0.11389498,240,3000000000.0
259226,1.2961303348091141e-06,-0.44993207,-0.8863133,0.0072534257,0.11265843,240,3000000000.0
259227,1.296136186577752e-06,-0.45581877,-0.8833808000000001,0.008205009000000001,0.11093867,240,3000000000.0
259228,1.2961405755554606e-06,-0.46062553,-0.8809402,0.008735395,0.10969615,240,3000000000.0
259229,1.2961464291470006e-06,-0.46737987,-0.87744164,0.009186423,0.108237155,240,3000000000.0
259230,1.2961508178893257e-06,-0.47257754,-0.8746947,0.009328548,0.10736517599999999,240,3000000000.0
259231,1.2961552062849899e-06,-0.47778339999999997,-0.87189555,0.00930276,0.10670850400000001,240,3000000000.0
259232,1.2961610571056886e-06,-0.48457763,-0.86816883,0.009012899,0.106196895,240,3000000000.0
259233,1.2961654455601464e-06,-0.48944956,-0.86544424,0.008611838,0.10608325,240,3000000000.0
259234,1.296171295527776e-06,-0.4954897,-0.8620040999999999,0.007849652,0.10626941,240,3000000000.0
259235,1.2961756839124374e-06,-0.49958426,-0.8596313,0.0071224085999999995,0.10662901,240,3000000000.0
259236,1.2961800725628537e-06,-0.50323236,-0.8574879000000001,0.0062773316,0.1071302,240,3000000000.0
259237,1.2961859247789918e-06,-0.5073067,-0.85505855,0.0049948455,0.10793049,240,3000000000.0
259238,1.296190313117531e-06,-0.5097109000000001,-0.8536046999999999,0.0039392756,0.10855286,240,3000000000.0
259239,1.296196164834538e-06,-0.5119845000000001,-0.8522097,0.0024423494,0.10928486,240,3000000000.0
259240,1.296200553074392e-06,-0.512962,-0.85159683,0.0012783128,0.10968472,240,3000000000.0
259241,1.296206402778335e-06,-0.5132752,-0.851377,-0.00029052602,0.10992893,240,3000000000.0
259242,1.2962107912633386e-06,-0.51276946,-0.8516614,-0.0014543723,0.10986426,240,3000000000.0
259243,1.2962151793900477e-06,-0.51164186,-0.85232234,-0.0025851359,0.109566495,240,3000000000.0
259244,1.2962210322633242e-06,-0.5092095,-0.8537604,-0.0040097004,0.10880838,240,3000000000.0
259245,1.2962254204556718e-06,-0.50673234,-0.8552244000000001,-0.004992396,0.10799079,240,3000000000.0
259246,1.2962312704913836e-06,-0.50263983,-0.8576292,-0.0061586196999999995,0.10665645,240,3000000000.0
259247,1.296235659415627e-06,-0.49904406,-0.8597243,-0.006907723,0.105551645,240,3000000000.0
259248,1.2962400482413616e-06,-0.49506396,-0.86202174,-0.007535909,0.10443749,240,3000000000.0
259249,1.296245899352402e-06,-0.48927513,-0.8653209000000001,-0.008169441999999999,0.10304226,240,3000000000.0
259250,1.2962502882341596e-06,-0.48466447,-0.8679120000000001,-0.00848295,0.1021378,240,3000000000.0
259251,1.2962561423557656e-06,-0.4783018,-0.87143373,-0.0086778905,0.101224706,240,3000000000.0
259252,1.2962605322901608e-06,-0.47347403,-0.87406385,-0.00865525,0.1008234,240,3000000000.0
259253,1.296266384740747e-06,-0.4671152,-0.8774735,-0.008403343,0.100739285,240,3000000000.0
259254,1.296270774583487e-06,-0.4625065,-0.8799058000000001,-0.008053895,0.101030454,240,3000000000.0
259255,1.2962751645438188e-06,-0.45812129999999995,-0.8821906999999999,-0.007574521999999999,0.10162794,240,3000000000.0
259256,1.2962810166351417e-06,-0.45274818,-0.8849513000000001,-0.0067495336,0.102871746,240,3000000000.0
259257,1.2962854065296507e-06,-0.4491585,-0.8867726999999999,-0.006005829,0.10411509,240,3000000000.0
259258,1.2962912612801432e-06,-0.44507092,-0.8888259,-0.0048724245,0.10611926,240,3000000000.0
259259,1.296295650775801e-06,-0.44259529999999997,-0.89006054,-0.0039355895,0.10781700000000001,240,3000000000.0
259260,1.2963000397986242e-06,-0.44066876,-0.8910184999999999,-0.0029417437,0.109617725,240,3000000000.0
259261,1.2963058919917384e-06,-0.43900326,-0.8918505999999999,-0.0015563414999999999,0.11207211,240,3000000000.0
259262,1.2963102810418298e-06,-0.43845436,-0.8921336999999999,-0.0004940893,0.11386561,240,3000000000.0
259263,1.2963161318446652e-06,-0.43866646,-0.89205444,0.0009206264500000001,0.11606302,240,3000000000.0
259264,1.296320520783902e-06,-0.43952516,-0.8916556000000001,0.0019592927,0.11747914,240,3000000000.0
259265,1.296326374172529e-06,-0.44156906,-0.89068305,0.0032840446,0.1189478,240,3000000000.0
259266,1.2963307628087583e-06,-0.44373770000000007,-0.88963634,0.0042125520000000005,0.119670905,240,3000000000.0
259267,1.2963351515076954e-06,-0.44640884,-0.88833225,0.005070312,0.120031826,240,3000000000.0
259268,1.2963410030016064e-06,-0.4506701,-0.88622254,0.0060828277000000005,0.11990383,240,3000000000.0
259269,1.296345391346715e-06,-0.45432028,-0.88438845,0.006730145999999999,0.11934294,240,3000000000.0
259270,1.296351241260893e-06,-0.45967704,-0.88165325,0.007427403199999999,0.118009865,240,3000000000.0
259271,1.296355629706399e-06,-0.4639794,-0.87941915,0.007817736,0.11662271,240,3000000000.0
259272,1.296360018389841e-06,-0.46845025,-0.8770625,0.008089272,0.11496564,240,3000000000.0
259273,1.2963658713246728e-06,-0.474555,-0.8737864,0.008262488,0.112451464,240,3000000000.0
259274,1.2963702596093813e-06,-0.47914943,-0.8712757999999999,0.008250357,0.11043955,240,3000000000.0
259275,1.2963761109991172e-06,-0.48517096,-0.8679261,0.008048406999999999,0.107754394,240,3000000000.0
259276,1.296380499080428e-06,-0.4895248,-0.8654615,0.007762728000000001,0.10585615,240,3000000000.0
259277,1.2963863494794858e-06,-0.49499983,-0.86231023,0.007214004,0.10363682,240,3000000000.0
259278,1.2963907383718772e-06,-0.49878865,-0.86009437,0.006686286,0.10229669,240,3000000000.0
259279,1.2963951274638405e-06,-0.5022502000000001,-0.85804445,0.0060691022999999995,0.10129310000000001,240,3000000000.0
259280,1.2964009802737178e-06,-0.5062829000000001,-0.8556229,0.005124938,0.100539945,240,3000000000.0
259281,1.2964053696842926e-06,-0.5088238,-0.8540777,0.0043408354,0.10043716,240,3000000000.0
259282,1.2964112220197484e-06,-0.5115130999999999,-0.85242236,0.0032175085999999998,0.10090509,240,3000000000.0
259283,1.296415610821337e-06,-0.51297975,-0.85150796,0.0023334692,0.101671994,240,3000000000.0
259284,1.2964214606949043e-06,-0.51417714,-0.85074735,0.0011248903,0.10315867,240,3000000000.0
259285,1.2964258496415316e-06,-0.51450104,-0.8505282,0.0002127761,0.10454036,240,3000000000.0
259286,1.2964302387565709e-06,-0.51433486,-0.8506100000000001,-0.0006892954700000001,0.106069736,240,3000000000.0
259287,1.296436091704976e-06,-0.5133673,-0.85117686,-0.0018544259,0.10818528,240,3000000000.0
259288,1.296440481178911e-06,-0.51210344,-0.85192996,-0.002684078,0.10971139,240,3000000000.0
259289,1.296446334013719e-06,-0.5097444999999999,-0.8533385,-0.0037099236999999998,0.11149932,240,3000000000.0
259290,1.2964507231945388e-06,-0.5075088,-0.8546697,-0.0044056512,0.11255075,240,3000000000.0
259291,1.2964551127254151e-06,-0.5049117000000001,-0.8562079,-0.0050282557,0.11328445,240,3000000000.0
259292,1.2964609631773856e-06,-0.5009587000000001,-0.85852975,-0.005731015,0.11369499,240,3000000000.0
259293,1.2964653525224545e-06,-0.49768206,-0.8604354,-0.0061548096,0.11356146,240,3000000000.0
259294,1.2964712062511685e-06,-0.49298993,-0.8631331,-0.00657314,0.112814195,240,3000000000.0
259295,1.29647559546525e-06,-0.48929706,-0.8652306000000001,-0.0067728837,0.11188595,240,3000000000.0
259296,1.2964814481800805e-06,-0.48424179999999994,-0.86806506,-0.006885031999999999,0.11027826,240,3000000000.0
259297,1.2964858374542385e-06,-0.48042306,-0.8701783000000001,-0.0068541938,0.10889672,240,3000000000.0
259298,1.2964902267493685e-06,-0.47664124,-0.87224764,-0.0067271944,0.107457474,240,3000000000.0
259299,1.2964960779024984e-06,-0.471749,-0.87489116,-0.0064148847,0.105594635,240,3000000000.0
259300,1.296500467655802e-06,-0.46825665,-0.8767559000000001,-0.006080042,0.10434025,240,3000000000.0
259301,1.296506321359775e-06,-0.46392745,-0.8790425999999999,-0.0055120713,0.10297560000000001,240,3000000000.0
259302,1.2965107104885649e-06,-0.46098298,-0.8805838,-0.005005401,0.10224298,240,3000000000.0
259303,1.2965151000554594e-06,-0.45833900000000005,-0.88195926,-0.004439343,0.10179231,240,3000000000.0
259304,1.2965209531795095e-06,-0.45533636,-0.8835143,-0.0036092182,0.10165144,240,3000000000.0
259305,1.29652534270694e-06,-0.45350969999999996,-0.88445926,-0.0029437186,0.10188378,240,3000000000.0
259306,1.296531193915061e-06,-0.451676,-0.8854131,-0.0020200660999999996,0.1026143,240,3000000000.0
259307,1.2965355830831208e-06,-0.45076495,-0.8858954,-0.0013141695000000002,0.10343959,240,3000000000.0
259308,1.2965414359655664e-06,-0.4501749,-0.88622737,-0.0003764761,0.10483809599999999,240,3000000000.0
259309,1.296545824577736e-06,-0.4501945,-0.88624686,0.00030998167,0.10605172,240,3000000000.0
259310,1.29655021305337e-06,-0.4505971,-0.8860754999999999,0.0009707407400000001,0.10735239,240,3000000000.0
259311,1.296556065620077e-06,-0.45169777,-0.8855636999999998,0.0017954897,0.109125175,240,3000000000.0
259312,1.2965604538189178e-06,-0.45291388,-0.88498074,0.0023602934,0.11040817,240,3000000000.0
259313,1.2965663038044736e-06,-0.4549991,-0.883962,0.0030274063,0.11194466,240,3000000000.0
259314,1.2965706923480018e-06,-0.45686635,-0.8830353999999999,0.0034552393,0.11289148,240,3000000000.0
259315,1.2965750811273376e-06,-0.45895119999999995,-0.8819884,0.0038151820000000003,0.11360196,240,3000000000.0
259316,1.2965809341601878e-06,-0.46199933,-0.8804364,0.004183219,0.11409567,240,3000000000.0
259317,1.2965853230754323e-06,-0.4644308,-0.8791818000000001,0.0043722726,0.11407892,240,3000000000.0
259318,1.2965911755948635e-06,-0.46778578,-0.8774271999999999,0.004507015,0.113498844,240,3000000000.0
259319,1.296595564399499e-06,-0.47033098,-0.8760792,0.0045209844,0.112643585,240,3000000000.0
259320,1.2966014142837722e-06,-0.47368420000000006,-0.8742806000000001,0.0044276463,0.110986575,240,3000000000.0
259321,1.2966058029563551e-06,-0.47611997,-0.87295836,0.0042781457,0.109412126,240,3000000000.0
259322,1.2966101916209688e-06,-0.47844719999999996,-0.87168294,0.0040656477,0.10762629,240,3000000000.0
259323,1.2966160434007307e-06,-0.48132554,-0.8700892,0.0036941785,0.10505773,240,3000000000.0
259324,1.2966204314362195e-06,-0.48327848,-0.8689975000000001,0.0033580705,0.10311061,240,3000000000.0
259325,1.2966262830854205e-06,-0.4855639,-0.8677098,0.0028470390999999996,0.10309497,240,3000000000.0
259326,1.296630671230649e-06,-0.4870143,-0.86688685,0.002426948,0.10351634,240,3000000000.0
259327,1.2966350597825015e-06,-0.48822352,-0.8661975000000001,0.0019843732000000003,0.10361205,240,3000000000.0
259328,1.2966409089520228e-06,-0.48944499999999996,-0.8654982,0.0013741470999999999,0.10325239,240,3000000000.0
259329,1.2966452972023038e-06,-0.49006382,-0.8651429,0.0009119515300000001,0.10263466,240,3000000000.0
259330,1.2966511500115955e-06,-0.49049449999999994,-0.86489516,0.0003052349,0.10138148,240,3000000000.0
259331,1.2966555391589129e-06,-0.49052959999999995,-0.86487496,-0.00013233117,0.100138895,240,3000000000.0
259332,1.2966613919547845e-06,-0.49021295,-0.8650563,-0.0006787991,0.09921589,240,3000000000.0
259333,1.2966657810088187e-06,-0.48972252,-0.8653368,-0.0010523701,0.100949466,240,3000000000.0
259334,1.2966701701618051e-06,-0.48903584,-0.865728,-0.0013884992000000001,0.10297966,240,3000000000.0
259335,1.2966760202394965e-06,-0.48785332,-0.86639816,-0.0017699704000000002,0.105989195,240,3000000000.0
259336,1.2966804089294866e-06,-0.48679736,-0.86699307,-0.0020012301,0.10833532,240,3000000000.0
259337,1.2966862604999692e-06,-0.48521498,-0.867878,-0.0022310612,0.11137068,240,3000000000.0
259338,1.2966906493927858e-06,-0.48393357,-0.8685889000000001,-0.002342397,0.11342568,240,3000000000.0
259339,1.2966950389772615e-06,-0.48260328,-0.8693216999999999,-0.002400723,0.11516967,240,3000000000.0
259340,1.2967008924570309e-06,-0.48080406,-0.87030387,-0.0023968334,0.11685402,240,3000000000.0
259341,1.2967052816625394e-06,-0.47947323,-0.87102354,-0.0023345998,0.117545225,240,3000000000.0
259342,1.2967111322668414e-06,-0.47777635,-0.87193215,-0.0021773255,0.11763972,240,3000000000.0
259343,1.2967155215458118e-06,-0.47659463,-0.87255853,-0.0020080023,0.11709304,240,3000000000.0
259344,1.296721375066448e-06,-0.47518545,-0.87329763,-0.0017217789,0.11561436,240,3000000000.0
259345,1.296725764755453e-06,-0.47428045,-0.87376666,-0.0014682463,0.11403754,240,3000000000.0
259346,1.296730153812495e-06,-0.47352514,-0.87415355,-0.0011875378,0.112159476,240,3000000000.0
259347,1.2967360076655742e-06,-0.47277412,-0.8745308,-0.0007810939,0.109377734,240,3000000000.0
259348,1.2967403968796084e-06,-0.47241629999999996,-0.8747041999999999,-0.00046041163,0.10722325,240,3000000000.0
259349,1.296746247739407e-06,-0.4722237,-0.8747851000000001,-2.3913664e-05,0.10445235,240,3000000000.0
259350,1.2967506374303414e-06,-0.47229440000000006,-0.87473285,0.00030198408,0.10256774,240,3000000000.0
259351,1.2967550272776858e-06,-0.47254664,-0.87458533,0.0006194754,0.10092699,240,3000000000.0
259352,1.296760880784579e-06,-0.47315377,-0.8742469999999999,0.0010191845,0.09921348,240,3000000000.0
259353,1.2967652706055166e-06,-0.47379845,-0.87389386,0.0012937685,0.09832372,240,3000000000.0
259354,1.2967711246905678e-06,-0.47488376,-0.8733038000000001,0.0016163983,0.09769571,240,3000000000.0
259355,1.2967755141928602e-06,-0.47584406,-0.8727832,0.0018196653,0.09763825,240,3000000000.0
259356,1.2967813649410671e-06,-0.47728068,-0.87200445,0.0020316779000000003,0.09808663,240,3000000000.0
259357,1.2967857537649714e-06,-0.47844675,-0.8713715,0.0021424915,0.09878471,240,3000000000.0
259358,1.296790142637304e-06,-0.47966176,-0.8707107,0.0022094045,0.09975839,240,3000000000.0
259359,1.296795994541213e-06,-0.48131448,-0.8698089,0.0022279178,0.10141975,240,3000000000.0
259360,1.2968003835008887e-06,-0.48254540000000007,-0.8691349,0.002188091,0.10288162,240,3000000000.0
259361,1.2968062356402966e-06,-0.48412648,-0.86826617,0.0020641635999999997,0.10503556,240,3000000000.0
259362,1.2968106236563408e-06,-0.48523477,-0.8676550999999999,0.0019198931,0.10673257,240,3000000000.0
259363,1.2968150113395306e-06,-0.48625055,-0.867094,0.0017340604,0.10844332,240,3000000000.0
259364,1.2968208607860028e-06,-0.48742333,-0.8664451999999999,0.0014269068,0.11064647,240,3000000000.0
259365,1.2968252488030784e-06,-0.48814154,-0.8660481,0.0011567936,0.11216534,240,3000000000.0
259366,1.2968310998147585e-06,-0.48885113,-0.8656577,0.000752143,0.11390861,240,3000000000.0
259367,1.2968354880136415e-06,-0.48917934,-0.8654805,0.0004218396,0.114936024,240,3000000000.0
259368,1.2968413398049142e-06,-0.48932463,-0.8654101999999999,-4.390031e-05,0.115857475,240,3000000000.0
259369,1.296845727603198e-06,-0.4892053,-0.8654876,-0.00040445902,0.116171576,240,3000000000.0
259370,1.2968501158619437e-06,-0.48888627,-0.8656788000000001,-0.00076802063,0.11614843,240,3000000000.0
259371,1.2968559663869384e-06,-0.48815086,-0.8661101000000001,-0.0012466867,0.115595244,240,3000000000.0
259372,1.296860355262332e-06,-0.4873715,-0.8665624,-0.0015932970999999998,0.11481695,240,3000000000.0
259373,1.2968662074469477e-06,-0.4860433,-0.8673277,-0.0020275442,0.113373,240,3000000000.0
259374,1.2968705959415008e-06,-0.48484504,-0.86801344,-0.002324943,0.11205612,240,3000000000.0
259375,1.2968764487473487e-06,-0.48300540000000003,-0.8690598,-0.0026740462,0.11011839,240,3000000000.0
259376,1.2968808369843617e-06,-0.48146808,-0.86992836,-0.0028941557,0.108624905,240,3000000000.0
259377,1.2968852258356212e-06,-0.47981802,-0.87085515,-0.0030741412,0.107180916,240,3000000000.0
259378,1.2968910763227541e-06,-0.47748294,-0.8721568999999999,-0.0032459679999999997,0.10545486,240,3000000000.0
259379,1.296895464862555e-06,-0.47566208,-0.8731646999999999,-0.0033205179999999997,0.104391165,240,3000000000.0
259380,1.2969013167208085e-06,-0.47319165,-0.8745215000000001,-0.0033443356,0.10337492,240,3000000000.0
259381,1.296905706062205e-06,-0.47134220000000004,-0.8755291999999999,-0.0033045427000000004,0.102954715,240,3000000000.0
259382,1.2969100950247409e-06,-0.46952668,-0.8765120000000001,-0.0032154684999999997,0.10284911,240,3000000000.0
259383,1.2969159481546221e-06,-0.4672054,-0.87775886,-0.0030217844,0.10318645,240,3000000000.0
259384,1.2969203367371451e-06,-0.46557440000000005,-0.8786285,-0.0028228278000000002,0.10377558,240,3000000000.0
259385,1.2969261869218142e-06,-0.46359417,-0.8796768,-0.00249115,0.10494228,240,3000000000.0
259386,1.2969305756454443e-06,-0.46228427,-0.88036543,-0.0021970025,0.10604215,240,3000000000.0
259387,1.2969364268308015e-06,-0.46081170000000005,-0.88113457,-0.0017523696,0.107703395,240,3000000000.0
259388,1.2969408147773866e-06,-0.45993587,-0.8815888000000001,-0.0013858054,0.10900963,240,3000000000.0
259389,1.2969452032247896e-06,-0.45927209999999996,-0.8819309000000001,-0.0009966494,0.110302635,240,3000000000.0
259390,1.2969510562062508e-06,-0.45873612,-0.8822033000000001,-0.00045228300000000005,0.1118961,240,3000000000.0
259391,1.2969554445438974e-06,-0.4586058,-0.88226575,-3.2766682e-05,0.112925336,240,3000000000.0
259392,1.2969612950449918e-06,-0.4588005,-0.8821568999999999,0.0005302555,0.11399826,240,3000000000.0
259393,1.2969656839792937e-06,-0.459222,-0.88193166,0.00094761845,0.114540875,240,3000000000.0
259394,1.2969700733350958e-06,-0.45987475,-0.8815851,0.0013541658,0.11484972,240,3000000000.0
259395,1.2969759249645358e-06,-0.46108999999999994,-0.88094145,0.0018694754000000001,0.11490016,240,3000000000.0
259396,1.2969803141809402e-06,-0.46224508,-0.8803291,0.002229072,0.1146894,240,3000000000.0
259397,1.2969861671220561e-06,-0.46408119999999997,-0.8793527,0.0026633926000000003,0.11413755,240,3000000000.0
259398,1.2969905555923365e-06,-0.46565595,-0.8785117,0.0029495382,0.11356672,240,3000000000.0
