,# t (s),mx (),my (),mz (),MaxAngle (rad),phi (degree),f_RF (GHz)
329401,1.6470058637872738e-06,0.47672737,-0.87255484,-0.0011585211999999999,0.11225689,305,3000000000.0
329402,1.6470102709576034e-06,0.47801873,-0.87184554,-0.0031615365,0.11191744,305,3000000000.0
329403,1.6470161423273632e-06,0.48138159999999997,-0.8699886999999998,-0.0056770480000000005,0.11146288,305,3000000000.0
329404,1.6470205425586788e-06,0.48505065,-0.8679444,-0.0074191173,0.111146286,305,3000000000.0
329405,1.6470264088329308e-06,0.4913227,-0.8644031999999999,-0.009511318000000001,0.11080183,305,3000000000.0
329406,1.647030805085867e-06,0.49693608,-0.8611823000000001,-0.010882339,0.11057789999999999,305,3000000000.0
329407,1.647035200660912e-06,0.50321436,-0.8575203000000001,-0.012066235,0.11036381,305,3000000000.0
329408,1.6470410585976143e-06,0.512419,-0.85203475,-0.013330376000000001,0.110095605,305,3000000000.0
329409,1.6470454523380388e-06,0.5197955,-0.8475356,-0.014030101000000001,0.10990013,305,3000000000.0
329410,1.6470513096682355e-06,0.53002405,-0.8411405999999999,-0.014619205,0.10960192,305,3000000000.0
329411,1.6470557017024228e-06,0.53782946,-0.8361349,-0.014799606000000002,0.10929853,305,3000000000.0
329412,1.6470600927189175e-06,0.5456139,-0.831031,-0.014756893,0.10888575,305,3000000000.0
329413,1.6470659489682838e-06,0.55576473,-0.82420236,-0.014360619,0.10811846,305,3000000000.0
329414,1.6470703395200875e-06,0.56305957,-0.8191701,-0.013819391,0.1073535,305,3000000000.0
329415,1.6470761920224613e-06,0.5721717,-0.8127316,-0.012794168,0.10603932,305,3000000000.0
329416,1.6470805821144796e-06,0.5784321,-0.8082060000000001,-0.0118160015,0.10480619,305,3000000000.0
329417,1.6470864349702904e-06,0.58586377,-0.80271995,-0.0102658635,0.10278,305,3000000000.0
329418,1.647090824446551e-06,0.59066683,-0.79910463,-0.008944223000000001,0.10094650000000001,305,3000000000.0
329419,1.6470952142614419e-06,0.59475034,-0.795984,-0.0075099547,0.09884875,305,3000000000.0
329420,1.6471010687386146e-06,0.59900576,-0.79267836,-0.0054617636,0.095691666,305,3000000000.0
329421,1.6471054585966631e-06,0.60126686,-0.7908915,-0.0038555108,0.09308609,305,3000000000.0
329422,1.6471113109692041e-06,0.60301065,-0.7894796,-0.0016668276999999999,0.08934248,305,3000000000.0
329423,1.6471157000644815e-06,0.6033608,-0.7891627,-2.1828330999999997e-05,0.08638019,305,3000000000.0
329424,1.647120088638796e-06,0.60289735,-0.78947943,0.0015990494,0.08335373,305,3000000000.0
329425,1.6471259396556025e-06,0.6010462,-0.7908594,0.0036823071999999997,0.07935412,305,3000000000.0
329426,1.647130328450031e-06,0.5987693000000001,-0.7925762,0.0051576965,0.08140080400000001,305,3000000000.0
329427,1.6471361821807812e-06,0.59462214,-0.7956989999999999,0.0069698634999999995,0.084912054,305,3000000000.0
329428,1.6471405712211927e-06,0.59074426,-0.79859865,0.008187696,0.08718752,305,3000000000.0
329429,1.6471464239954331e-06,0.58466136,-0.8030969,0.009592880500000001,0.08961462,305,3000000000.0
329430,1.6471508131390081e-06,0.57950443,-0.8068586,0.010464973,0.09091394400000001,305,3000000000.0
329431,1.6471552025869337e-06,0.57392156,-0.81087554,0.011169295,0.091724426,305,3000000000.0
329432,1.6471610545582454e-06,0.56596005,-0.81650317,0.01183383,0.09201161,305,3000000000.0
329433,1.6471654444524129e-06,0.5597138,-0.82083577,0.01212026,0.09161504,305,3000000000.0
329434,1.6471712998526897e-06,0.55119354,-0.8266294,0.012216546000000002,0.09024049,305,3000000000.0
329435,1.6471756899808615e-06,0.54478765,-0.8308979999999999,0.012076843500000002,0.08856485,305,3000000000.0
329436,1.6471800802829673e-06,0.53847265,-0.835034,0.011760898,0.086341485,305,3000000000.0
329437,1.6471859331930392e-06,0.5303585,-0.84024525,0.011079273999999998,0.08257332,305,3000000000.0
329438,1.6471903227310548e-06,0.5246187,-0.8438631,0.010386498000000001,0.07919908,305,3000000000.0
329439,1.6471961743636903e-06,0.51758844,-0.84821963,0.00924604,0.07914482,305,3000000000.0
329440,1.64720056390938e-06,0.51287997,-0.8510934000000001,0.008247902,0.08302591,305,3000000000.0
329441,1.6472064178291184e-06,0.50748044,-0.85434836,0.00675965,0.08863962,305,3000000000.0
329442,1.6472108071423896e-06,0.5041624,-0.85633016,0.0055504767,0.09306943,305,3000000000.0
329443,1.647215196711593e-06,0.5015175999999999,-0.8579036,0.0042834533,0.09758993,305,3000000000.0
329444,1.6472210485486946e-06,0.49908838,-0.85935247,0.002540064,0.103598215,305,3000000000.0
329445,1.64722543792206e-06,0.49810863,-0.8599495,0.0012185657,0.10796203,305,3000000000.0
329446,1.647231289732156e-06,0.49792647,-0.8600983,-0.00052264903,0.1133788,305,3000000000.0
329447,1.6472356785737229e-06,0.4986151,-0.85973495,-0.0017874318,0.116990946,305,3000000000.0
329448,1.6472400679192445e-06,0.49998185,-0.85897875,-0.0029962092999999998,0.12009851,305,3000000000.0
329449,1.6472459209517148e-06,0.50279164,-0.8573888000000001,-0.004490742,0.12331569999999999,305,3000000000.0
329450,1.6472503090986829e-06,0.5055739,-0.85578924,-0.005503001600000001,0.124957725,305,3000000000.0
329451,1.64725615975455e-06,0.51007116,-0.8531638,-0.0066826735,0.12604958,305,3000000000.0
329452,1.6472605479904634e-06,0.5139476,-0.8508650999999999,-0.007425541,0.12604058,305,3000000000.0
329453,1.647266397780937e-06,0.5196466,-0.8474290000000001,-0.008210317,0.12499884,305,3000000000.0
329454,1.6472707860669353e-06,0.52422035,-0.8446234,-0.0086372215,0.12355098,305,3000000000.0
329455,1.6472751739284516e-06,0.52896184,-0.8416699000000001,-0.008921700500000001,0.12166441,305,3000000000.0
329456,1.647281025743866e-06,0.53541046,-0.8375794,-0.009078584,0.11870092,305,3000000000.0
329457,1.6472854142026297e-06,0.5402405,-0.8344591999999998,-0.009031898,0.11633139,305,3000000000.0
329458,1.6472912649148252e-06,0.5465324,-0.83032125,-0.008759246,0.11323224,305,3000000000.0
329459,1.6472956527050944e-06,0.5510517,-0.8272965,-0.008406016,0.111101136,305,3000000000.0
329460,1.6473000408754181e-06,0.5553313,-0.8243908999999999,-0.00793525,0.10922528,305,3000000000.0
329461,1.647305890154008e-06,0.560567,-0.8207796999999999,-0.007143919,0.10718871,305,3000000000.0
329462,1.647310278517449e-06,0.5640816999999999,-0.8183195,-0.0064434665,0.10601004,305,3000000000.0
329463,1.6473161301787648e-06,0.56814253,-0.8154385999999999,-0.005393209,0.10482899,305,3000000000.0
329464,1.6473205180947747e-06,0.5706791,-0.81361663,-0.004537585,0.10414949999999999,305,3000000000.0
329465,1.647326368435823e-06,0.5733425,-0.8116813,-0.0033351402000000004,0.10334141,305,3000000000.0
329466,1.6473307563799934e-06,0.57478493,-0.8106201999999999,-0.0024071836,0.10267828400000001,305,3000000000.0
329467,1.647335144093125e-06,0.5757464,-0.8099029000000001,-0.0014740999999999999,0.10186209,305,3000000000.0
329468,1.6473409935420878e-06,0.57628685,-0.8094823,-0.00024810677999999997,0.10040624,305,3000000000.0
329469,1.6473453815122185e-06,0.57615054,-0.8095600000000001,0.00063948677,0.098961025,305,3000000000.0
329470,1.6473512336748302e-06,0.57528144,-0.81016237,0.0017550145999999998,0.09650977,305,3000000000.0
329471,1.6473556227007854e-06,0.5741474,-0.8109619,0.002524727,0.09427573,305,3000000000.0
329472,1.6473600113312362e-06,0.5726348000000001,-0.8120312,0.003225053,0.09173679,305,3000000000.0
329473,1.6473658633298357e-06,0.5700930999999999,-0.81382483,0.004035282,0.087987475,305,3000000000.0
329474,1.6473702521947686e-06,0.5678473,-0.81540227,0.0045405366,0.08500407,305,3000000000.0
329475,1.6473761031824491e-06,0.56448716,-0.817746,0.005067,0.08097599999999999,305,3000000000.0
329476,1.6473804925021434e-06,0.5617549,-0.8196363999999999,0.005346867,0.07926385,305,3000000000.0
329477,1.6473863465526904e-06,0.55792564,-0.8222613999999999,0.005563443,0.08326276,305,3000000000.0
329478,1.6473907372202483e-06,0.5549821,-0.8242596,0.005608730500000001,0.08590771,305,3000000000.0
329479,1.6473951271811199e-06,0.5520354999999999,-0.82624286,0.005555911,0.088183284,305,3000000000.0
329480,1.647400980790902e-06,0.5481885999999999,-0.8288065999999998,0.0053395606,0.09053368,305,3000000000.0
329481,1.647405371580267e-06,0.545428,-0.8306288000000001,0.0050748526,0.09173028,305,3000000000.0
329482,1.6474112244975628e-06,0.5420008000000001,-0.8328714,0.0045986827000000004,0.09250331,305,3000000000.0
329483,1.6474156150157015e-06,0.5396726,-0.8343828999999999,0.0041597304,0.09244393599999999,305,3000000000.0
329484,1.64742000529063e-06,0.537593,-0.83572584,0.003661099,0.09184473,305,3000000000.0
329485,1.6474258596114682e-06,0.53525823,-0.8372267,0.0029210174,0.090247765,305,3000000000.0
329486,1.6474302491700485e-06,0.5338673,-0.8381192,0.0023238342,0.088498786,305,3000000000.0
329487,1.647436102062565e-06,0.53252405,-0.8389837,0.0014926823999999999,0.08551922,305,3000000000.0
329488,1.6474404910551631e-06,0.53191227,-0.83938295,0.0008581134,0.08286044,305,3000000000.0
329489,1.6474463415416818e-06,0.53162706,-0.83958316,1.8796824999999998e-05,0.07897199,305,3000000000.0
329490,1.647450731302003e-06,0.53180367,-0.83948934,-0.000591717,0.081970595,305,3000000000.0
329491,1.6474551199099275e-06,0.5323011,-0.83919454,-0.0011738741000000001,0.08513875,305,3000000000.0
329492,1.6474609731200488e-06,0.5334313,-0.83850676,-0.0018895532999999999,0.08954799,305,3000000000.0
329493,1.6474653627672603e-06,0.5345966999999999,-0.8377879,-0.0023692094,0.09292565,305,3000000000.0
329494,1.647471215688103e-06,0.53651744,-0.8365904000000001,-0.0029179608,0.097419724,305,3000000000.0
329495,1.6474756046173222e-06,0.5381881,-0.8355389000000001,-0.00325302,0.10070134,305,3000000000.0
329496,1.647481455338091e-06,0.54065007,-0.83397394,-0.0035882469,0.10483354,305,3000000000.0
329497,1.6474858452767957e-06,0.54262143,-0.8327085999999999,-0.0037515871000000003,0.10766236,305,3000000000.0
329498,1.647490234410378e-06,0.5446524,-0.83139384,-0.0038369994,0.11018291,305,3000000000.0
329499,1.6474960876063676e-06,0.5473814,-0.82960916,-0.003828852,0.112953894,305,3000000000.0
329500,1.6475004764129698e-06,0.5493895000000001,-0.82828295,-0.0037324940000000003,0.11451479,305,3000000000.0
329501,1.6475063280802794e-06,0.5519400999999999,-0.82658195,-0.003488487,0.115841486,305,3000000000.0
329502,1.6475107171614772e-06,0.55370945,-0.82539093,-0.0032239738,0.11625228,305,3000000000.0
329503,1.647515105283071e-06,0.55531716,-0.82430035,-0.0028955252,0.11617723,305,3000000000.0
329504,1.6475209557286004e-06,0.5571566,-0.8230421,-0.0023693186,0.11538835,305,3000000000.0
329505,1.64752534417106e-06,0.55827415,-0.82227135,-0.0019180957,0.11436446,305,3000000000.0
329506,1.6475311948121455e-06,0.5593736,-0.82150704,-0.0012571784,0.11259532,305,3000000000.0
329507,1.647535582238561e-06,0.55988425,-0.8211483,-0.00072888157,0.111101136,305,3000000000.0
329508,1.6475414336033462e-06,0.5601265000000001,-0.8209724,9.663186999999998e-07,0.10909781,305,3000000000.0
329509,1.6475458220283511e-06,0.55997235,-0.8210734000000001,0.0005544614,0.10772502,305,3000000000.0
329510,1.6475502099328709e-06,0.559531,-0.82137394,0.0011020796000000002,0.1065657,305,3000000000.0
329511,1.6475560587927425e-06,0.5585062,-0.8220767,0.001806099,0.10547072,305,3000000000.0
329512,1.6475604470960606e-06,0.5574243000000001,-0.82281953,0.0023026518,0.10503613,305,3000000000.0
329513,1.6475662999969728e-06,0.5555949,-0.82407296,0.0029059064000000003,0.10497926,305,3000000000.0
329514,1.647570688656467e-06,0.5539613,-0.8251881999999999,0.0033035737,0.105286546,305,3000000000.0
329515,1.6475750776798278e-06,0.5521315,-0.82643193,0.0036464978,0.105827935,305,3000000000.0
329516,1.6475809299528999e-06,0.54943794,-0.82825136,0.0040081579999999995,0.10676110000000001,305,3000000000.0
329517,1.6475853184867731e-06,0.5472704,-0.82970464,0.0042014187,0.10748971,305,3000000000.0
329518,1.6475911681332513e-06,0.54425263,-0.83171225,0.004348541,0.10830114,305,3000000000.0
329519,1.6475955567835856e-06,0.5419408,-0.83323705,0.0043733604,0.10865569,305,3000000000.0
329520,1.6476014084387291e-06,0.5388685999999999,-0.83524525,0.0042912066,0.108634256,305,3000000000.0
329521,1.6476057975022303e-06,0.5366229,-0.8366998,0.004144247,0.10817589,305,3000000000.0
329522,1.6476101862251232e-06,0.53447086,-0.83808297,0.003926575,0.107306205,305,3000000000.0
329523,1.6476160390173711e-06,0.53181046,-0.83977765,0.0035323552,0.10552166,305,3000000000.0
329524,1.6476204284226249e-06,0.5300183,-0.8409095999999999,0.0031648607,0.10376638,305,3000000000.0
329525,1.6476262793276404e-06,0.52796084,-0.84219825,0.0025903906,0.10098612,305,3000000000.0
329526,1.6476306684652961e-06,0.5267024,-0.84298015,0.0021048598,0.09867889,305,3000000000.0
329527,1.6476350571362094e-06,0.5257151999999999,-0.8435891999999999,0.0015810797,0.09627753,305,3000000000.0
329528,1.6476409107524122e-06,0.5248523,-0.8441158000000001,0.0008372024,0.09308226,305,3000000000.0
329529,1.6476453000564557e-06,0.5245635000000001,-0.84428763,0.00025680245,0.090790436,305,3000000000.0
329530,1.6476511527026729e-06,0.5246705,-0.8442115,-0.0005300869999999999,0.08800579,305,3000000000.0
329531,1.6476555416056162e-06,0.52512187,-0.84392476,-0.0011181174,0.08618236,305,3000000000.0
329532,1.6476613927223654e-06,0.5262101,-0.84324,-0.0018822394,0.08417584,305,3000000000.0
329533,1.64766578147497e-06,0.52737814,-0.84250647,-0.002429275,0.08301657,305,3000000000.0
329534,1.6476701701500402e-06,0.5288304,-0.84159285,-0.0029447756,0.08217200000000001,305,3000000000.0
329535,1.6476760224744015e-06,0.5311736,-0.84011286,-0.0035700311,0.08153997,305,3000000000.0
329536,1.647680410681291e-06,0.5332034000000001,-0.8388238000000001,-0.0039833584,0.08144332,305,3000000000.0
329537,1.6476862639208766e-06,0.5362196,-0.83689487,-0.0044493224,0.08180591,305,3000000000.0
329538,1.6476906528463162e-06,0.5386711,-0.8353146,-0.0047283126,0.082440965,305,3000000000.0
329539,1.647695041854174e-06,0.54124695,-0.8336415,-0.0049426206,0.0833752,305,3000000000.0
329540,1.6477008922184085e-06,0.54481125,-0.8313048000000001,-0.0051229442,0.08506021,305,3000000000.0
329541,1.647705281716646e-06,0.54753536,-0.8295011,-0.0051770625,0.08662511,305,3000000000.0
329542,1.6477111341640748e-06,0.55116296,-0.8270752,-0.005140118,0.089056104,305,3000000000.0
329543,1.6477155235345752e-06,0.5538326,-0.8252718000000001,-0.0050315509999999996,0.09108776,305,3000000000.0
329544,1.6477213775097854e-06,0.55725765,-0.8229350000000001,-0.0047825207,0.09399671,305,3000000000.0
329545,1.6477257665314933e-06,0.5596805,-0.82126606,-0.004521544000000001,0.09626327,305,3000000000.0
329546,1.6477301550215402e-06,0.56194425,-0.8196943999999999,-0.004201348,0.09854509,305,3000000000.0
329547,1.6477360053075619e-06,0.5646664,-0.8177886,-0.0036907708,0.1015192,305,3000000000.0
329548,1.647740394390331e-06,0.5664544,-0.81652683,-0.0032521964000000003,0.10362991,305,3000000000.0
329549,1.6477462452960525e-06,0.56845874,-0.8151029000000001,-0.0026055572,0.106188454,305,3000000000.0
329550,1.6477506336122353e-06,0.56965524,-0.8142475,-0.0020830033,0.10786186,305,3000000000.0
329551,1.6477550221675904e-06,0.570574,-0.81358755,-0.0015363259,0.109283775,305,3000000000.0
329552,1.6477608750654506e-06,0.5713511,-0.8130261999999999,-0.000782853,0.11074252,305,3000000000.0
329553,1.647765263419155e-06,0.57159114,-0.8128505,-0.00020964364,0.111492895,305,3000000000.0
329554,1.6477711143067542e-06,0.571453,-0.8129459,0.00055095047,0.11203426,305,3000000000.0
329555,1.6477755035383361e-06,0.57101,-0.813261,0.0011089564,0.11210781,305,3000000000.0
329556,1.6477813563888663e-06,0.56998134,-0.81399417,0.0018223528,0.11181012,305,3000000000.0
329557,1.6477857453771255e-06,0.56889653,-0.8147661,0.0023253616,0.111332595,305,3000000000.0
329558,1.647790133798565e-06,0.56756026,-0.8157143,0.0027937904999999997,0.11068156,305,3000000000.0
329559,1.6477959871766359e-06,0.5654183,-0.8172263000000001,0.0033548812,0.109617725,305,3000000000.0
329560,1.6478003762871594e-06,0.5635707,-0.81852275,0.0037212223,0.10873261,305,3000000000.0
329561,1.6478062269109067e-06,0.5608327,-0.8204304,0.0041289366999999995,0.10751693,305,3000000000.0
329562,1.647810615972907e-06,0.5586074000000001,-0.82196873,0.0043699266,0.106622286,305,3000000000.0
329563,1.6478150047919588e-06,0.5562675,-0.82357466,0.004552502,0.10577093,305,3000000000.0
329564,1.6478208578395222e-06,0.55302113,-0.8257831,0.004702458,0.10473210000000001,305,3000000000.0
329565,1.6478252463511644e-06,0.5505334,-0.82746005,0.0047439784,0.1040319,305,3000000000.0
329566,1.64783109966516e-06,0.5472044,-0.82968366,0.0047055217,0.10319224,305,3000000000.0
329567,1.647835488677944e-06,0.54474074,-0.83131427,0.0046081063,0.10261546,305,3000000000.0
329568,1.647841339550013e-06,0.54155874,-0.8334019,0.0043912566999999994,0.10187967,305,3000000000.0
329569,1.647845728128601e-06,0.53928685,-0.8348802,0.004167519000000001,0.10132316,305,3000000000.0
329570,1.6478501174863408e-06,0.5371435999999999,-0.83626556,0.0038957777000000002,0.100744024,305,3000000000.0
329571,1.6478559689297416e-06,0.5345302,-0.8379431999999999,0.0034670394,0.09991148,305,3000000000.0
329572,1.6478603580257618e-06,0.53278166,-0.83905894,0.003102425,0.09923273,305,3000000000.0
329573,1.6478662110424104e-06,0.53076786,-0.8403381,0.0025698307,0.09826723,305,3000000000.0
329574,1.6478706001972638e-06,0.5295156999999999,-0.841131,0.0021436778,0.09751895,305,3000000000.0
329575,1.6478764510910943e-06,0.5282106,-0.8419565999999999,0.0015521482999999998,0.09652523,305,3000000000.0
329576,1.6478808403193084e-06,0.5275133000000001,-0.84239864,0.0010992744,0.095823824,305,3000000000.0
329577,1.6478852293863038e-06,0.5270607,-0.8426879,0.0006458394000000001,0.09519255,305,3000000000.0
329578,1.6478910810500828e-06,0.5268347,-0.8428386,5.1391954999999995e-05,0.094511606,305,3000000000.0
329579,1.6478954694745294e-06,0.5269411,-0.84277976,-0.00037895358,0.09415724,305,3000000000.0
329580,1.6479013233132126e-06,0.5274337,-0.84248245,-0.00092157663,0.09392874,305,3000000000.0
329581,1.647905712452638e-06,0.5280491,-0.8421049999999999,-0.0012981753,0.09395415,305,3000000000.0
329582,1.6479101014558012e-06,0.5288578,-0.8416051999999999,-0.0016437432,0.09415534,305,3000000000.0
329583,1.6479159521680337e-06,0.53020453,-0.8407667999999999,-0.0020494591,0.09468513,305,3000000000.0
329584,1.6479203402166374e-06,0.5313893,-0.8400243000000001,-0.0023084418,0.095264,305,3000000000.0
329585,1.647926190529705e-06,0.5331597,-0.83890754,-0.0025888586,0.09624962,305,3000000000.0
329586,1.647930579049676e-06,0.5346006,-0.8379926,-0.002748591,0.09712084,305,3000000000.0
329587,1.647936430721436e-06,0.53662705,-0.8366976,-0.0028928295,0.09842082,305,3000000000.0
329588,1.6479408189822878e-06,0.53819466,-0.8356891,-0.0029496811,0.0994695,305,3000000000.0
329589,1.6479452069980018e-06,0.53977746,-0.8346655000000001,-0.0029635956,0.100556575,305,3000000000.0
329590,1.6479510562486127e-06,0.5418723000000001,-0.83330214,-0.0029183277000000003,0.10203018,305,3000000000.0
329591,1.6479554446573504e-06,0.54340553,-0.83229876,-0.0028395394,0.10312625,305,3000000000.0
329592,1.6479612956643229e-06,0.54536206,-0.83101153,-0.0026803827,0.10453921,305,3000000000.0
329593,1.6479656836883513e-06,0.54674155,-0.8300995000000001,-0.0025250039,0.10553863,305,3000000000.0
329594,1.6479700721360125e-06,0.54802924,-0.82924515,-0.002343098,0.10647039999999999,305,3000000000.0
329595,1.6479759254652294e-06,0.5495828,-0.82821095,-0.0020665762,0.10757912,305,3000000000.0
329596,1.6479803140225344e-06,0.55061185,-0.82752407,-0.0018396422,0.10829563,305,3000000000.0
329597,1.6479861645580015e-06,0.5517899,-0.8267367,-0.0015196993,0.10908139,305,3000000000.0
329598,1.64799055344019e-06,0.55252254,-0.8262466,-0.0012725919,0.10953324,305,3000000000.0
329599,1.647996405034111e-06,0.5532954000000001,-0.82573044,-0.0009422185,0.10994414,305,3000000000.0
329600,1.648000793609903e-06,0.5537234999999999,-0.82544553,-0.0006993327999999999,0.11010862,305,3000000000.0
329601,1.648005182853121e-06,0.55402565,-0.82524574,-0.00046507415,0.11015092,305,3000000000.0
