,# t (s),mx (),my (),mz (),MaxAngle (rad),phi (degree),f_RF (GHz)
48600,2.4300145778688343e-07,0.733255,0.6693300999999999,0.0017144098000000001,0.10126775,45,3000000000.0
48601,2.430058279352998e-07,0.73343444,0.6691099,-0.00038610262,0.10142446,45,3000000000.0
48602,2.4301023624535835e-07,0.7327471,0.66984236,-0.0024513735,0.101665534,45,3000000000.0
48603,2.4301611110776725e-07,0.7305147,0.6722571999999999,-0.005080065,0.102141894,45,3000000000.0
48604,2.4302051307711374e-07,0.7278967,0.67508525,-0.006926765,0.10260324,45,3000000000.0
48605,2.4302637801508694e-07,0.723226,0.68009186,-0.009180216,0.10330616,45,3000000000.0
48606,2.430307752693479e-07,0.7189017,0.6846754,-0.01068687,0.10384922,45,3000000000.0
48607,2.4303517099464685e-07,0.71393937,0.68987095,-0.012014704,0.10439288599999999,45,3000000000.0
48608,2.430410291114658e-07,0.70645,0.69758034,-0.013478148,0.1050708,45,3000000000.0
48609,2.430454223630334e-07,0.7002765999999999,0.7038165,-0.014328147,0.1054792,45,3000000000.0
48610,2.43051282393372e-07,0.6914644,0.71253526,-0.015112176000000001,0.105766974,45,3000000000.0
48611,2.4305567528943464e-07,0.6845486999999999,0.71923035,-0.015429423999999999,0.10572237,45,3000000000.0
48612,2.4306006769170784e-07,0.67748106,0.72594184,-0.015511996,0.105424844,45,3000000000.0
48613,2.430659235741619e-07,0.66800576,0.73473847,-0.015259887,0.10461002,45,3000000000.0
48614,2.430703150211593e-07,0.66100186,0.741097,-0.014806297,0.103663325,45,3000000000.0
48615,2.430761670472429e-07,0.65201235,0.74908537,-0.01386748,0.101899005,45,3000000000.0
48616,2.430805567907889e-07,0.64566517,0.7546125,-0.012929676999999999,0.10018241,45,3000000000.0
48617,2.43086409515706e-07,0.6379228,0.7612335,-0.011399692,0.09741543,45,3000000000.0
48618,2.4309079863626354e-07,0.6327767,0.7655645000000001,-0.010068251,0.095024966,45,3000000000.0
48619,2.430951874811829e-07,0.6282875,0.76930064,-0.008603783,0.092387095,45,3000000000.0
48620,2.431010403118316e-07,0.6234411,0.7732969,-0.0064855814,0.08851295,45,3000000000.0
48621,2.4310542974602215e-07,0.6207314,0.77552116,-0.0048062857,0.085398406,45,3000000000.0
48622,2.431112796696536e-07,0.618423,0.7774260000000001,-0.0024977766,0.08107984,45,3000000000.0
48623,2.4311566855112943e-07,0.6176931,0.7780521,-0.0007477588,0.077812046,45,3000000000.0
48624,2.431200578546337e-07,0.6178246999999999,0.77799195,0.0009883444,0.07991831,45,3000000000.0
48625,2.431259112268764e-07,0.61931354,0.77686167,0.0032369785,0.08422758,45,3000000000.0
48626,2.431302999851031e-07,0.6213732,0.7752505999999999,0.0048412075,0.08721216,45,3000000000.0
48627,2.4313615103897755e-07,0.6252856999999999,0.7721349000000001,0.0068277176,0.090760194,45,3000000000.0
48628,2.4314053905877576e-07,0.6290146,0.76911706,0.0081767775,0.09302323,45,3000000000.0
48629,2.4314638779004306e-07,0.634904,0.76426786,0.0097534545,0.09542053,45,3000000000.0
48630,2.4315077525815966e-07,0.63990384,0.76007515,0.010750765,0.09669701,45,3000000000.0
48631,2.431551634671751e-07,0.64530385,0.7554696,0.0115759475,0.09747241,45,3000000000.0
48632,2.431610148015739e-07,0.6529638000000001,0.7487984000000001,0.0123933125,0.09766760000000001,45,3000000000.0
48633,2.4316540239273193e-07,0.6589286999999999,0.74348974,0.012787034,0.09716078,45,3000000000.0
48634,2.431712534279304e-07,0.6669984999999999,0.73614496,0.013016061,0.09559992,45,3000000000.0
48635,2.4317564220024505e-07,0.67302,0.7305397,0.012967632,0.09376591,45,3000000000.0
48636,2.431800312048316e-07,0.67891866,0.72494197,0.012735363000000001,0.09136648,45,3000000000.0
48637,2.431858817361371e-07,0.6864524000000001,0.7176339,0.012152898,0.08729972,45,3000000000.0
48638,2.431902708514003e-07,0.6917634,0.7123709,0.011524399,0.083626755,45,3000000000.0
48639,2.43196123780719e-07,0.6982706999999999,0.705792,0.010454948,0.07797290400000001,45,3000000000.0
48640,2.432005127347779e-07,0.7026489,0.70128083,0.0094988225,0.0814587,45,3000000000.0
48641,2.432063654437359e-07,0.70773417,0.6959506,0.008049991999999999,0.08726689,45,3000000000.0
48642,2.432107549381711e-07,0.7109383,0.6925387,0.0068565025,0.09172118,45,3000000000.0
48643,2.4321514394745213e-07,0.7135901,0.6896795,0.005592761,0.09614351,45,3000000000.0
48644,2.432209944585252e-07,0.7162373000000001,0.6867866,0.0038328427,0.10178762,45,3000000000.0
48645,2.432253841418957e-07,0.71754545,0.6853345000000001,0.0024816757000000003,0.10568056,45,3000000000.0
48646,2.432312387659781e-07,0.7183831999999999,0.684376,0.0006763556,0.11017911,45,3000000000.0
48647,2.4323562797734914e-07,0.71833986,0.6843878000000001,-0.00065446395,0.11287825,45,3000000000.0
48648,2.432400169304479e-07,0.7177363,0.6850101,-0.0019452153,0.11487832,45,3000000000.0
48649,2.432458698987761e-07,0.71609443,0.68674636,-0.003574257,0.11632522,45,3000000000.0
48650,2.4325025887119106e-07,0.71426994,0.6886826,-0.004705862,0.11645303,45,3000000000.0
48651,2.432561094775496e-07,0.7111097,0.6920248,-0.0060672127000000005,0.115405425,45,3000000000.0
48652,2.432604987212622e-07,0.7082429,0.6950354999999999,-0.006962115400000001,0.11381891,45,3000000000.0
48653,2.432663522345436e-07,0.7038426999999999,0.69961095,-0.007967451,0.11091551,45,3000000000.0
48654,2.4327074134872513e-07,0.7001748000000001,0.70338035,-0.008569911999999999,0.10838933,45,3000000000.0
48655,2.4327513056519624e-07,0.6962509,0.7073674,-0.009036285,0.105786175,45,3000000000.0
48656,2.4328098336776165e-07,0.6907201,0.7129079,-0.009440752,0.10252815,45,3000000000.0
48657,2.432853726287786e-07,0.68642634,0.71714526,-0.009579745,0.100458555,45,3000000000.0
48658,2.432912222831057e-07,0.68062735,0.7227811,-0.009548803,0.09842507,45,3000000000.0
48659,2.432956114565853e-07,0.6762997,0.726923,-0.009368319,0.09752630000000001,45,3000000000.0
48660,2.433000007677508e-07,0.672061,0.7309278,-0.009059545,0.097173065,45,3000000000.0
48661,2.4330585425100945e-07,0.66665035,0.73596746,-0.0084619485,0.09746261,45,3000000000.0
48662,2.4331024320798106e-07,0.6628483000000001,0.7394616,-0.007887156999999999,0.09812923,45,3000000000.0
48663,2.433160967388085e-07,0.6582158,0.7436685000000001,-0.006973199,0.09939024,45,3000000000.0
48664,2.4332048606961896e-07,0.6551303,0.74644154,-0.006193904,0.10043121,45,3000000000.0
48665,2.433263361859902e-07,0.6516084,0.74958163,-0.0050563933,0.10166201,45,3000000000.0
48666,2.4333072528913584e-07,0.6494484,0.75149673,-0.004147757,0.10227683,45,3000000000.0
48667,2.4333511459178605e-07,0.6477267,0.7530207,-0.0032084929999999998,0.102483295,45,3000000000.0
48668,2.4334096782984063e-07,0.6461353,0.7544348000000001,-0.0019347181,0.10195583,45,3000000000.0
48669,2.4334535683037393e-07,0.6454757,0.75503224,-0.0009832267,0.100874916,45,3000000000.0
48670,2.43351210280311e-07,0.64529836,0.75522393,0.00025305353,0.09849237,45,3000000000.0
48671,2.433555989804169e-07,0.64567363,0.7549296999999999,0.0011374654,0.09603975,45,3000000000.0
48672,2.433614495920154e-07,0.6468088000000001,0.75398767,0.0022354315,0.09202068,45,3000000000.0
48673,2.43365838032198e-07,0.64809746,0.7528983,0.0029832395,0.088581696,45,3000000000.0
48674,2.433702261000367e-07,0.6497208999999999,0.7515107,0.0036547906,0.08491977,45,3000000000.0
48675,2.433760777429437e-07,0.6523353,0.7492508000000001,0.004417193,0.079919055,45,3000000000.0
48676,2.4338046623209e-07,0.6545743,0.74729425,0.004880402,0.082936026,45,3000000000.0
48677,2.4338631856531465e-07,0.65784013,0.7444082,0.0053442814,0.08686522,45,3000000000.0
48678,2.4339070682233625e-07,0.66043466,0.7420889,0.0055732164,0.08942461,45,3000000000.0
48679,2.433950951879637e-07,0.66309875,0.73968357,0.0056993286,0.09156616,45,3000000000.0
48680,2.4340094375161845e-07,0.66667336,0.7364181,0.005709611,0.09364678,45,3000000000.0
48681,2.434053321740952e-07,0.669313,0.73397857,0.00560282,0.09456211,45,3000000000.0
48682,2.434111836866828e-07,0.6726926,0.7308191999999999,0.005316909,0.09487093,45,3000000000.0
48683,2.4341557233901697e-07,0.6750708000000001,0.7285715,0.0050033126,0.094431356,45,3000000000.0
48684,2.4342142470189054e-07,0.6779666,0.72580594,0.00446816,0.09302772599999999,45,3000000000.0
48685,2.4342581283109497e-07,0.6798925,0.7239485,0.003991278,0.09145006,45,3000000000.0
48686,2.434302012194158e-07,0.6815804,0.72230774,0.0034609742,0.08950733400000001,45,3000000000.0
48687,2.4343605103426797e-07,0.6834276,0.72049665,0.0026901488,0.08649066,45,3000000000.0
48688,2.434404391934951e-07,0.6844931,0.7194425999999999,0.0020789295,0.083997004,45,3000000000.0
48689,2.43446291235542e-07,0.6854729,0.71846354,0.0012421916000000001,0.08046076,45,3000000000.0
48690,2.434506793063051e-07,0.6858741,0.7180546999999999,0.0006137924,0.077693105,45,3000000000.0
48691,2.434550680409697e-07,0.6859933000000001,0.7179229,-2.7996072999999996e-06,0.07483691,45,3000000000.0
48692,2.434609203650486e-07,0.6857283000000001,0.7181643,-0.0007876153999999999,0.077278845,45,3000000000.0
48693,2.434653090697137e-07,0.6852293,0.7186404000000001,-0.0013348882,0.08051784,45,3000000000.0
48694,2.4347115927843817e-07,0.6841984,0.71963245,-0.0019919195,0.08500195,45,3000000000.0
48695,2.434755475753459e-07,0.6831799,0.7206139,-0.0024199875,0.08844009,45,3000000000.0
48696,2.434813993479097e-07,0.6815448000000001,0.7221868,-0.002891699,0.09304954,45,3000000000.0
48697,2.4348578840509656e-07,0.6801489000000001,0.7235251,-0.0031643660999999997,0.09646955,45,3000000000.0
48698,2.434901772536301e-07,0.6786432,0.7249631,-0.0033632526,0.09980565,45,3000000000.0
48699,2.434960293144497e-07,0.6765230999999999,0.7269772,-0.0035098644,0.1040319,45,3000000000.0
48700,2.435004182334773e-07,0.6748939,0.7285162,-0.0035299507000000003,0.10696061,45,3000000000.0
48701,2.435062689190569e-07,0.6727368,0.7305419,-0.0034385857,0.11043035,45,3000000000.0
48702,2.435106581132474e-07,0.6711748000000001,0.73200023,-0.00328452,0.11262979,45,3000000000.0
48703,2.4351504700115745e-07,0.6696984,0.73337233,-0.0030613183,0.11442869,45,3000000000.0
48704,2.435208997922533e-07,0.6679169,0.73501974,-0.0026648752,0.11613352,45,3000000000.0
48705,2.4352528897244985e-07,0.6667589,0.7360861999999999,-0.0023015237,0.11686118,45,3000000000.0
48706,2.435311426009548e-07,0.66549975,0.7372426,-0.0017426348000000001,0.11709763,45,3000000000.0
48707,2.435355316432181e-07,0.664797,0.7378875,-0.0012783887,0.11675991,45,3000000000.0
48708,2.435413820711229e-07,0.6642123999999999,0.73842597,-0.00061603,0.11571198,45,3000000000.0
48709,2.435457706479745e-07,0.6640524999999999,0.7385771,-9.8496006e-05,0.114563815,45,3000000000.0
48710,2.43550159406152e-07,0.6641381,0.73850614,0.00042625458,0.11318792,45,3000000000.0
48711,2.4355601134628647e-07,0.6646350000000001,0.7380647,0.0011206724,0.1111307,45,3000000000.0
48712,2.435603993134121e-07,0.66528857,0.7374782,0.0016252445999999999,0.10951307,45,3000000000.0
48713,2.435662517907194e-07,0.6665161999999999,0.7363696,0.0022595387,0.10735405,45,3000000000.0
48714,2.4357064093307444e-07,0.6676842,0.7353088000000001,0.0026952141999999997,0.10578504,45,3000000000.0
48715,2.4357503025078823e-07,0.6690429,0.73406845,0.003087905,0.104281284,45,3000000000.0
48716,2.4358088099893997e-07,0.67111033,0.73216885,0.0035324722999999997,0.10238187,45,3000000000.0
48717,2.4358527011387074e-07,0.672819,0.7305876,0.0037990252,0.10101982,45,3000000000.0
48718,2.435911224968811e-07,0.67525214,0.72831845,0.0040558795,0.09925018,45,3000000000.0
48719,2.4359551134478085e-07,0.6771524,0.72653204,0.004169847,0.09792337599999999,45,3000000000.0
48720,2.4360136430840296e-07,0.6797255999999999,0.72409225,0.004212437,0.096109346,45,3000000000.0
48721,2.4360575325757716e-07,0.68164194,0.7222596,0.0041609993,0.09468639999999999,45,3000000000.0
48722,2.436101418490249e-07,0.6835104999999999,0.7204593,0.0040383516,0.093197614,45,3000000000.0
48723,2.4361599261029637e-07,0.6858728000000001,0.71816355,0.0037667522999999996,0.09110611,45,3000000000.0
48724,2.43620380848588e-07,0.687509,0.7165598000000001,0.0034855243,0.08946331,45,3000000000.0
48725,2.436262325805511e-07,0.68945694,0.71463466,0.0030146536999999998,0.087222435,45,3000000000.0
48726,2.436306210876687e-07,0.6907095999999999,0.7133863,0.002596248,0.08554293,45,3000000000.0
48727,2.436350097006355e-07,0.691759,0.7123333000000001,0.00212861,0.083906725,45,3000000000.0
48728,2.4364086252802057e-07,0.69280934,0.71126944,0.0014403913,0.08186133,45,3000000000.0
48729,2.436452519434852e-07,0.693315,0.71075004,0.0008857807000000001,0.08049264,45,3000000000.0
48730,2.436511024415544e-07,0.6935919,0.7104539000000001,0.00011103156999999999,0.078959145,45,3000000000.0
48731,2.4365549107705586e-07,0.6934916,0.7105401,-0.00048547727,0.07807078,45,3000000000.0
48732,2.4366134250595104e-07,0.69294196,0.7110727,-0.0012842092,0.07744697,45,3000000000.0
48733,2.436657317968309e-07,0.6922187,0.71178323,-0.0018741675,0.077550896,45,3000000000.0
48734,2.436701208898499e-07,0.6912348,0.7127532,-0.0024462675,0.07735986,45,3000000000.0
48735,2.4367597450546233e-07,0.68953294,0.7144307,-0.0031665107000000002,0.07749857,45,3000000000.0
48736,2.436803634841066e-07,0.68798184,0.71595585,-0.003663793,0.07814794,45,3000000000.0
48737,2.4368621437686445e-07,0.6855803,0.71830714,-0.004255253400000001,0.07937668,45,3000000000.0
48738,2.436906036785545e-07,0.6835554,0.72027844,-0.004636485,0.08052673,45,3000000000.0
48739,2.436964541176893e-07,0.6806053000000001,0.7231312,-0.0050501204,0.08229608,45,3000000000.0
48740,2.437008429176601e-07,0.6782393,0.7254015,-0.005283228,0.08375083,45,3000000000.0
48741,2.4370523154950703e-07,0.6757759,0.7277488,-0.0054459553,0.08527952400000001,45,3000000000.0
48742,2.4371108479396863e-07,0.6723941,0.7309432,-0.0055490555,0.087374195,45,3000000000.0
48743,2.4371547334420915e-07,0.6698301,0.73334324,-0.0055391663,0.088958204,45,3000000000.0
48744,2.437213230584924e-07,0.6664401999999999,0.7364876,-0.005409705,0.09105433,45,3000000000.0
48745,2.4372571182141394e-07,0.6639630999999999,0.7387646999999999,-0.0052269623,0.092600055,45,3000000000.0
48746,2.4373010076201113e-07,0.6615809,0.7409380999999999,-0.0049735256,0.09411285,45,3000000000.0
48747,2.4373595163146403e-07,0.65861064,0.743626,-0.0045320790000000005,0.096073315,45,3000000000.0
48748,2.4374033965747316e-07,0.6565778,0.7454514,-0.0041294420000000005,0.09749017,45,3000000000.0
48749,2.43746192015877e-07,0.65418136,0.7475889,-0.0035079335999999997,0.09929168,45,3000000000.0
48750,2.437505798483143e-07,0.6526536000000001,0.7489435000000001,-0.0029872349,0.10056251,45,3000000000.0
48751,2.437564292205782e-07,0.6510166000000001,0.75038874,-0.0022342592000000002,0.10210915,45,3000000000.0
48752,2.437608175438864e-07,0.65011036,0.7511866,-0.0016355898999999999,0.10312972,45,3000000000.0
48753,2.437652063611547e-07,0.6494943,0.7517289,-0.0010172229,0.104007214,45,3000000000.0
48754,2.437710573967798e-07,0.64913714,0.75204575,-0.00017722504000000001,0.10491155,45,3000000000.0
48755,2.4377544535534093e-07,0.6492208,0.7519766,0.00045317088,0.10536422,45,3000000000.0
48756,2.4378129788387165e-07,0.6497963999999999,0.7514791999999999,0.0012782624,0.105638735,45,3000000000.0
48757,2.437856854118036e-07,0.6505658000000001,0.7508100000000001,0.0018743054,0.10558898,45,3000000000.0
48758,2.437900738166264e-07,0.6516112,0.74989676,0.002442436,0.1053183,45,3000000000.0
48759,2.4379592429357827e-07,0.653405,0.7483208,0.0031437045,0.10463113,45,3000000000.0
48760,2.438003129842055e-07,0.6550241,0.74688965,0.0036191141999999997,0.10388370599999999,45,3000000000.0
48761,2.438061639010486e-07,0.6575017,0.744684,0.0041745184000000005,0.102619536,45,3000000000.0
48762,2.4381055364278414e-07,0.6595652,0.74283296,0.004526191,0.10149978,45,3000000000.0
48763,2.438164076265284e-07,0.6625344,0.74014646,0.00490127,0.09982659,45,3000000000.0
48764,2.4382079686015613e-07,0.6648844,0.7380011,0.0051086126,0.09847055,45,3000000000.0
48765,2.4382518556738056e-07,0.6673051,0.7357733,0.0052507673,0.09705812,45,3000000000.0
48766,2.4383103758257e-07,0.6705898,0.7327214,0.005337964000000001,0.09512982,45,3000000000.0
48767,2.438354273912795e-07,0.67305636,0.7304075,0.0053271474,0.09367865,45,3000000000.0
48768,2.4384127943740165e-07,0.6762913,0.72734326,0.0052139134999999994,0.09177972400000001,45,3000000000.0
48769,2.4384566900094827e-07,0.67864156,0.72509617,0.0050580413,0.09041032,45,3000000000.0
48770,2.438500585560049e-07,0.6808973,0.72292286,0.004845024,0.08911305,45,3000000000.0
48771,2.438559119870356e-07,0.68371713,0.72018313,0.0044791596,0.08752911,45,3000000000.0
48772,2.438603009871665e-07,0.6856629,0.71827793,0.0041496656,0.08648169,45,3000000000.0
48773,2.438661529337087e-07,0.6879976,0.71597624,0.003646995,0.085315205,45,3000000000.0
48774,2.4387054174760015e-07,0.6895340999999999,0.7144524999999999,0.0032300540000000004,0.08463963,45,3000000000.0
48775,2.438763932790772e-07,0.69127375,0.71271914,0.0026326279999999997,0.08404032,45,3000000000.0
48776,2.4388078168536174e-07,0.6923353,0.7116581,0.0021617233,0.08383842,45,3000000000.0
48777,2.438851709663876e-07,0.69318193,0.71081066,0.0016783196,0.083858356,45,3000000000.0
48778,2.4389102546159183e-07,0.6939714,0.7100211,0.001025386,0.084242456,45,3000000000.0
48779,2.4389541487938023e-07,0.6943085,0.70968634,0.0005379095,0.08479038,45,3000000000.0
48780,2.4390126666266674e-07,0.69442374,0.70957816,-9.772094999999999e-05,0.08585004,45,3000000000.0
48781,2.4390565553172073e-07,0.69426686,0.7097432,-0.0005563803,0.08686247,45,3000000000.0
48782,2.439100450118164e-07,0.69391006,0.7101097,-0.0009937504,0.08803698,45,3000000000.0
48783,2.439158968715544e-07,0.6931417,0.7108916999999999,-0.0015354146,0.08979626,45,3000000000.0
48784,2.439202860696494e-07,0.69236165,0.7116805,-0.001905188,0.091219366,45,3000000000.0
48785,2.4392613988165734e-07,0.6910768,0.7129714,-0.002342915,0.09318672,45,3000000000.0
48786,2.439305293428537e-07,0.68995064,0.71409595,-0.002625875,0.09466874,45,3000000000.0
48787,2.439363808668237e-07,0.6882654,0.71576786,-0.0029387043,0.096590765,45,3000000000.0
48788,2.439407696976933e-07,0.68688715,0.71712595,-0.0031232438,0.09795081,45,3000000000.0
48789,2.439451592171013e-07,0.68543196,0.7185513000000001,-0.0032640753999999997,0.09921108,45,3000000000.0
48790,2.439510105441241e-07,0.6834063,0.7205213,-0.0033838178,0.10069541,45,3000000000.0
48791,2.4395539949192106e-07,0.68184763,0.72202605,-0.0034234996,0.10164028,45,3000000000.0
48792,2.439612527564525e-07,0.67975354,0.72403353,-0.0034120725,0.102655604,45,3000000000.0
48793,2.4396564076919194e-07,0.6781961,0.7255163,-0.0033577888,0.103232734,45,3000000000.0
48794,2.4397002948315694e-07,0.6766688,0.7269621999999999,-0.0032670458000000004,0.10365411,45,3000000000.0
48795,2.439758806651821e-07,0.67470825,0.72880673,-0.00309447,0.10399688,45,3000000000.0
48796,2.439802699241321e-07,0.6733137,0.7301112,-0.0029306407000000002,0.10411165,45,3000000000.0
48797,2.439861210485881e-07,0.67158157,0.7317233,-0.0026734308000000003,0.10411796,45,3000000000.0
48798,2.439905097568041e-07,0.6703919,0.73282576,-0.0024564995,0.10404108,45,3000000000.0
48799,2.439963633039152e-07,0.6689687,0.73414016,-0.0021429382999999997,0.10387278,45,3000000000.0
48800,2.44000751730888e-07,0.668033,0.73500216,-0.0018951166,0.10372264,45,3000000000.0
48801,2.44005140847084e-07,0.66721475,0.7357551,-0.001640964,0.103560746,45,3000000000.0
48802,2.440109920244022e-07,0.66631055,0.73658717,-0.001299394,0.10333679,45,3000000000.0
48803,2.440153808535975e-07,0.6657724,0.7370833000000001,-0.0010461785,0.10315519599999999,45,3000000000.0
48804,2.440212311681807e-07,0.6652378000000001,0.7375784000000001,-0.00071954826,0.10287117,45,3000000000.0
48805,2.4402561986496944e-07,0.66496843,0.73783046,-0.00048700085999999994,0.10260324,45,3000000000.0
48806,2.4403000836294554e-07,0.66480553,0.7379863,-0.00026844389999999997,0.102268085,45,3000000000.0
48807,2.4403586151030487e-07,0.6647411999999999,0.73805547,-3.049144e-06,0.10167375,45,3000000000.0
48808,2.440402500939181e-07,0.6647965,0.73801345,0.00017368505000000002,0.10109426,45,3000000000.0
