,# t (s),mx (),my (),mz (),MaxAngle (rad),phi (degree),f_RF (GHz)
97201,4.860058290917198e-07,0.09689254,0.9908518,-0.002335902,0.1095267,90,3000000000.0
97202,4.86010240278594e-07,0.09470724,0.9910452,-0.0042446804999999995,0.10985937,90,3000000000.0
97203,4.860161155519051e-07,0.09002858400000001,0.99143374,-0.0065888935,0.11012380599999999,90,3000000000.0
97204,4.860205195010058e-07,0.085305065,0.9917988999999999,-0.0081706615,0.11021651,90,3000000000.0
97205,4.86026387168679e-07,0.07757928,0.99234265,-0.010008418,0.110165015,90,3000000000.0
97206,4.860307861967507e-07,0.07085954400000001,0.99276346,-0.011162596,0.10995935,90,3000000000.0
97207,4.860351836797075e-07,0.06348473,0.99317044,-0.012109655,0.10958666,90,3000000000.0
97208,4.860410463379095e-07,0.05286017,0.9936565,-0.013033383999999999,0.10882375,90,3000000000.0
97209,4.860454410011515e-07,0.04448241,0.99395704,-0.013463533500000001,0.108031705,90,3000000000.0
97210,4.860512984296847e-07,0.033036634,0.99425036,-0.013683100000000002,0.10657579,90,3000000000.0
97211,4.860556910552887e-07,0.024429427000000004,0.99438196,-0.013585018,0.10514863599999999,90,3000000000.0
97212,4.860600830939385e-07,0.015959574,0.9944374,-0.0132682705,0.10340438,90,3000000000.0
97213,4.860659372989712e-07,0.0051152287,0.9944021000000001,-0.012523154,0.10050966,90,3000000000.0
97214,4.860703279926253e-07,-0.0025196336,0.99430645,-0.011739523,0.09785507,90,3000000000.0
97215,4.860761832346086e-07,-0.011816641999999999,0.9941128,-0.010426739,0.09426812,90,3000000000.0
97216,4.860805732532852e-07,-0.01799218,0.9939389000000001,-0.00926743,0.09208618,90,3000000000.0
97217,4.860864257226341e-07,-0.025002357000000003,0.99370205,-0.007530999,0.08844886,90,3000000000.0
97218,4.860908152480442e-07,-0.029254565,0.9935415999999999,-0.006116796,0.08582432,90,3000000000.0
97219,4.860952046448009e-07,-0.03258772,0.99341226,-0.0046350327000000005,0.08359821,90,3000000000.0
97220,4.861010560285322e-07,-0.03554641,0.9933072000000001,-0.0025997674,0.08136122,90,3000000000.0
97221,4.861054451283464e-07,-0.036633555,0.9932889000000001,-0.0010621367999999998,0.08019111,90,3000000000.0
97222,4.861112986569161e-07,-0.036582157000000004,0.99335057,0.0009542344999999999,0.07952838400000001,90,3000000000.0
97223,4.861156876754575e-07,-0.03544797,0.9934591,0.0024084137,0.079596624,90,3000000000.0
97224,4.86120076590966e-07,-0.033418644,0.99361485,0.0037873082,0.080804124,90,3000000000.0
97225,4.861259282631706e-07,-0.029416768,0.99387974,0.005472170699999999,0.083239816,90,3000000000.0
97226,4.861303172001275e-07,-0.02553287,0.9941061,0.006596251,0.08601533,90,3000000000.0
97227,4.861361678235368e-07,-0.019335486000000002,0.99442005,0.007878199,0.09091854,90,3000000000.0
97228,4.861405566005286e-07,-0.014041908,0.99464715,0.008660766,0.09561365,90,3000000000.0
97229,4.861464098198802e-07,-0.0063146446,0.9949150999999999,0.009447448,0.10303472,90,3000000000.0
97230,4.861507986907699e-07,-0.00015926052999999999,0.9950764999999999,0.009836733,0.10930399,90,3000000000.0
97231,4.861551875284214e-07,0.0061830096,0.99519545,0.010050981,0.11492095,90,3000000000.0
97232,4.86161039146498e-07,0.014737541000000002,0.99528086,0.010065501999999999,0.124038525,90,3000000000.0
97233,4.861654280488516e-07,0.02108526,0.99528885,0.009877911,0.1295076,90,3000000000.0
97234,4.861712787751222e-07,0.029255187000000002,0.99523014,0.009376449,0.13455538,90,3000000000.0
97235,4.86175667760896e-07,0.035036173,0.9951421,0.008824454,0.13651791,90,3000000000.0
97236,4.861800567157535e-07,0.040417355,0.9950257,0.008135401,0.13693553,90,3000000000.0
97237,4.861859100060778e-07,0.04683128,0.9948438000000001,0.007028348,0.13534485,90,3000000000.0
97238,4.861902989609816e-07,0.050977442000000005,0.9947018,0.0060783721999999995,0.13282977,90,3000000000.0
97239,4.861961507634673e-07,0.05551199,0.99452573,0.0046858215,0.12822607,90,3000000000.0
97240,4.862005397348419e-07,0.05811093,0.994416,0.0035713790000000004,0.12420414,90,3000000000.0
97241,4.862063904357566e-07,0.060450047,0.9943148999999999,0.0020294939999999997,0.11857755,90,3000000000.0
97242,4.86210779479066e-07,0.061340883,0.9942799999999999,0.0008560763699999999,0.11439788,90,3000000000.0
97243,4.862151684403701e-07,0.061489098,0.99428296,-0.00031005533,0.11038166,90,3000000000.0
97244,4.862210219794436e-07,0.06055217,0.9943457,-0.0018214642000000001,0.105347216,90,3000000000.0
97245,4.862254110091377e-07,0.059030883,0.9944331,-0.0028986414,0.1017753,90,3000000000.0
97246,4.862312631621151e-07,0.055981707,0.99459296,-0.0042286417,0.0971448,90,3000000000.0
97247,4.862356522856666e-07,0.052992485,0.9947355999999999,-0.0051271096000000006,0.09365188,90,3000000000.0
97248,4.862400413998002e-07,0.04946613,0.9948886,-0.005926086999999999,0.09003258,90,3000000000.0
97249,4.862458923479121e-07,0.044046257000000005,0.9950924000000001,-0.006817447,0.084873386,90,3000000000.0
97250,4.862502814721786e-07,0.039537172999999995,0.99523354,-0.007344309,0.08279128,90,3000000000.0
97251,4.862561347741857e-07,0.03308429,0.9953915999999999,-0.007845593,0.07988172,90,3000000000.0
97252,4.862605238021001e-07,0.028024524,0.99547905,-0.008065471,0.07891606,90,3000000000.0
97253,4.862663759716031e-07,0.02114601,0.9955463,-0.008148145,0.07897274,90,3000000000.0
97254,4.862707650122983e-07,0.01599933,0.99555755,-0.008053845,0.08012486,90,3000000000.0
97255,4.862751541261129e-07,0.010956378000000001,0.9955359,-0.007829458000000001,0.081722714,90,3000000000.0
97256,4.862810049400514e-07,0.004534611,0.99546117,-0.0073381644,0.08459589999999999,90,3000000000.0
97257,4.862853940788783e-07,4.0869727e-05,0.9953769,-0.0068356525,0.08722448,90,3000000000.0
97258,4.862912473559124e-07,-0.005388789000000001,0.9952394,-0.006005592,0.091308974,90,3000000000.0
97259,4.862956364056057e-07,-0.008958875,0.9951271999999999,-0.0052783177,0.09403545,90,3000000000.0
97260,4.863000254086396e-07,-0.012041026000000002,0.99501616,-0.0044756266,0.09732101,90,3000000000.0
97261,4.86305877607325e-07,-0.015318646000000002,0.9948826999999999,-0.0033125210999999997,0.101030454,90,3000000000.0
97262,4.863102664847201e-07,-0.017110996,0.9948024,-0.002390095,0.10386474,90,3000000000.0
97263,4.863161168983357e-07,-0.018573366,0.9947315999999999,-0.0011232444,0.10759133,90,3000000000.0
97264,4.863205057127117e-07,-0.018963119,0.9947103,-0.00016542595000000002,0.11003157,90,3000000000.0
97265,4.863263585468766e-07,-0.018543918,0.9947269,0.0010920253,0.11381366,90,3000000000.0
97266,4.863307473136162e-07,-0.017543305,0.99477214,0.0020002632,0.11589356,90,3000000000.0
97267,4.863351360785513e-07,-0.015981099,0.9948421000000001,0.0028626378999999998,0.11682999,90,3000000000.0
97268,4.863409880410673e-07,-0.013083568,0.99496686,0.003917882,0.11905624,90,3000000000.0
97269,4.863453768148122e-07,-0.010355461,0.99507666,0.0046224403,0.11938148,90,3000000000.0
97270,4.863512270633438e-07,-0.006076949599999999,0.9952321,0.0054256464,0.11801847,90,3000000000.0
97271,4.863556157952946e-07,-0.002461861,0.9953470999999999,0.00591473,0.11581209,90,3000000000.0
97272,4.863600044895272e-07,0.0014293982999999998,0.99545366,0.006298761,0.11278931,90,3000000000.0
97273,4.863658570666472e-07,0.0069296267,0.99557304,0.0066389875,0.107834175,90,3000000000.0
97274,4.863702456948607e-07,0.011194733,0.9956398999999999,0.0067615340000000005,0.10368003,90,3000000000.0
97275,4.863760976244904e-07,0.016931426,0.99569416,0.0067470474,0.097910576,90,3000000000.0
97276,4.863804862141462e-07,0.02117702,0.99570733,0.006604916,0.09360279,90,3000000000.0
97277,4.863863362264619e-07,0.026627672999999998,0.9956904000000001,0.0062477705,0.08809255,90,3000000000.0
97278,4.863907247966786e-07,0.030473836,0.9956549000000001,0.005861686,0.0842205,90,3000000000.0
97279,4.863951133190307e-07,0.034043156,0.9956045,0.0053828209999999994,0.08060968,90,3000000000.0
97280,4.864009656517903e-07,0.038276597999999995,0.9955223,0.0046160603000000005,0.07620518,90,3000000000.0
97281,4.864053541217171e-07,0.04099366,0.99545634,0.003958903,0.07333914,90,3000000000.0
97282,4.864112059306871e-07,0.04393099599999999,0.9953731,0.0029957390000000003,0.072289616,90,3000000000.0
97283,4.864155943504055e-07,0.04557986,0.99532044,0.0022249583,0.07226898,90,3000000000.0
97284,4.864214440684787e-07,0.047000032000000004,0.99527097,0.001158465,0.07223760000000001,90,3000000000.0
97285,4.864258325026374e-07,0.047468074000000006,0.9952532,0.00034687766999999997,0.07221613,90,3000000000.0
97286,4.864302208678538e-07,0.047422535999999994,0.99525344,-0.00045935797999999996,0.07219382,90,3000000000.0
97287,4.864360730535547e-07,0.046577666,0.99528193,-0.0015031658,0.072483286,90,3000000000.0
97288,4.86440461504184e-07,0.045378855999999995,0.9953225,-0.0022458707,0.07403541,90,3000000000.0
97289,4.864463134268593e-07,0.043077115,0.99539703,-0.0031604145,0.076659486,90,3000000000.0
97290,4.864507019235734e-07,0.0408689,0.9954636,-0.0037755824,0.07846414,90,3000000000.0
97291,4.864550903882263e-07,0.038293887,0.9955344,-0.004319785,0.0800086,90,3000000000.0
97292,4.864609402659004e-07,0.03437402,0.9956276,-0.0049214326,0.08237145,90,3000000000.0
97293,4.864653288024075e-07,0.031136265,0.9956908999999999,-0.005271906999999999,0.08378431,90,3000000000.0
97294,4.864711810501972e-07,0.026530242000000002,0.9957591,-0.0055964086,0.08508476,90,3000000000.0
97295,4.864755696519486e-07,0.022936825,0.9957944,-0.005729379000000001,0.08587784,90,3000000000.0
97296,4.864814219036861e-07,0.018074045,0.9958165000000001,-0.0057583586,0.08674421,90,3000000000.0
97297,4.864858106415096e-07,0.014452188000000001,0.99581367,-0.005670471999999999,0.0869284,90,3000000000.0
97298,4.864901994453758e-07,0.010916836000000001,0.99579495,-0.005491864399999999,0.08672288,90,3000000000.0
97299,4.86496049713666e-07,0.006435365,0.99574846,-0.0051206513,0.08640505400000001,90,3000000000.0
97300,4.865004385288338e-07,0.0033144217,0.99570096,-0.0047501028,0.085994504,90,3000000000.0
97301,4.865062910498562e-07,-0.00043633455,0.99562734,-0.0041472176,0.08496123,90,3000000000.0
97302,4.865106799048582e-07,-0.0028874662,0.9955693000000001,-0.0036246447999999996,0.08397213,90,3000000000.0
97303,4.86515068698288e-07,-0.0049898755,0.99551374,-0.0030521784999999997,0.08327709,90,3000000000.0
97304,4.865209212867193e-07,-0.0072032725,0.99544924,-0.002228719,0.08205936,90,3000000000.0
97305,4.865253101264227e-07,-0.008394011,0.9954124,-0.0015799467,0.08100031,90,3000000000.0
97306,4.865311604876498e-07,-0.009332468,0.99538314,-0.0006941389299999999,0.080211945,90,3000000000.0
97307,4.865355493900811e-07,-0.0095440475,0.99537784,-2.7988217e-05,0.07958987,90,3000000000.0
97308,4.865414019427468e-07,-0.009176129,0.99539346,0.0008421864999999999,0.07875637,90,3000000000.0
97309,4.865457909477766e-07,-0.008427288,0.9954211,0.0014678928,0.078499876,90,3000000000.0
97310,4.865501798992007e-07,-0.0072931703,0.99546045,0.0020598573999999997,0.07838350000000001,90,3000000000.0
97311,4.86556032815169e-07,-0.0052241967,0.99552643,0.0027815478000000004,0.07828296,90,3000000000.0
97312,4.865604218413476e-07,-0.0032949324,0.9955824000000001,0.0032617045,0.078279145,90,3000000000.0
97313,4.865662724115041e-07,-0.0002880714,0.9956587,0.0038075465999999995,0.07840177,90,3000000000.0
97314,4.865706614952595e-07,0.0022416383,0.9957129000000001,0.004139188,0.07860622,90,3000000000.0
97315,4.865750505564807e-07,0.0049574496,0.99576086,0.0043993109999999995,0.07891077,90,3000000000.0
97316,4.865809032126422e-07,0.008787968,0.99581075,0.00462987,0.07946608,90,3000000000.0
97317,4.865852923018985e-07,0.011755045,0.9958348,0.004713484,0.07997877,90,3000000000.0
97318,4.865911454483785e-07,0.015745142,0.99584746,0.004705592,0.08075832599999999,90,3000000000.0
97319,4.865955346026572e-07,0.018699562,0.9958421000000001,0.004611745,0.08138541,90,3000000000.0
97320,4.866013853631987e-07,0.022498563,0.99581677,0.0043743937,0.082231514,90,3000000000.0
97321,4.866057745660324e-07,0.025186494,0.9957862,0.0041171440000000005,0.08283379,90,3000000000.0
97322,4.866101637755668e-07,0.027689561,0.9957483,0.0037975332,0.08337663,90,3000000000.0
97323,4.866160163723639e-07,0.030675222999999998,0.99569124,0.003284789,0.083953656,90,3000000000.0
97324,4.866204053945801e-07,0.032607894,0.9956473,0.0028442935999999997,0.08429202400000001,90,3000000000.0
97325,4.866262583841861e-07,0.034724765,0.99559283,0.0021968223000000003,0.0849802,90,3000000000.0
97326,4.866306473897286e-07,0.035939198,0.99555856,0.0016770164999999999,0.08530751,90,3000000000.0
97327,4.866350364006858e-07,0.036816757,0.9955322,0.0011374813,0.08543752,90,3000000000.0
97328,4.866408868743771e-07,0.0374472,0.99551207,0.00040305665,0.08525783,90,3000000000.0
97329,4.866452757785636e-07,0.0375119,0.9955093,-0.00014765908000000002,0.08499704,90,3000000000.0
97330,4.866511278171956e-07,0.037060935,0.9955218000000001,-0.00086477905,0.084761515,90,3000000000.0
97331,4.866555166299885e-07,0.03633307,0.9955421999999998,-0.0013785914000000001,0.08427433,90,3000000000.0
97332,4.866613693858896e-07,0.03487386,0.9955815999999998,-0.0020164188,0.08320325,90,3000000000.0
97333,4.86665758153374e-07,0.03344196,0.99561745,-0.0024495595,0.08274225,90,3000000000.0
97334,4.866701469431543e-07,0.03175056,0.995656,-0.0028366053000000004,0.08201136,90,3000000000.0
97335,4.866759973053318e-07,0.02914682,0.9957075999999999,-0.0032709893,0.08081668,90,3000000000.0
97336,4.866803860643331e-07,0.026977222000000002,0.99574333,-0.0035295417,0.08026994,90,3000000000.0
97337,4.866862379814755e-07,0.023868345,0.9957829,-0.003777745,0.07914934,90,3000000000.0
97338,4.8669062669658e-07,0.02142717,0.9958048,-0.0038884485,0.078875974,90,3000000000.0
97339,4.86695015397775e-07,0.018938215,0.995819,-0.0039332057,0.07838122,90,3000000000.0
97340,4.867008681182743e-07,0.015617106,0.99582475,-0.0038905093,0.07820899,90,3000000000.0
97341,4.867052567003675e-07,0.013179082,0.99582016,-0.003783429,0.07806773,90,3000000000.0
97342,4.867111068348882e-07,0.010074614,0.99580365,-0.0035454985,0.07847632,90,3000000000.0
97343,4.867154954281434e-07,0.00790356,0.9957853999999999,-0.0033004193,0.07872454,90,3000000000.0
97344,4.867213470179671e-07,0.005284535,0.995757,-0.0028939352000000003,0.07976661,90,3000000000.0
97345,4.86725735573512e-07,0.0035665901,0.9957351000000001,-0.0025367343,0.08040067,90,3000000000.0
97346,4.867301240595495e-07,0.002088851,0.9957149,-0.002141876,0.081507765,90,3000000000.0
97347,4.867359766589573e-07,0.000528349,0.9956938,-0.0015690151999999998,0.08279992,90,3000000000.0
97348,4.867403651596319e-07,-0.00031336583,0.9956843000000001,-0.0011146042999999998,0.08352322,90,3000000000.0
97349,4.867462151531967e-07,-0.0009781828,0.99568206,-0.00049073005,0.08496825400000001,90,3000000000.0
97350,4.867506037008048e-07,-0.0011282336,0.9956886,-1.9494911999999998e-05,0.08572134,90,3000000000.0
97351,4.867564550573059e-07,-0.00086622016,0.9957082,0.00059800944,0.08631522,90,3000000000.0
97352,4.867608435792794e-07,-0.00033262313999999997,0.9957299999999999,0.001043068,0.08647410000000001,90,3000000000.0
97353,4.867652321461904e-07,0.0004760721,0.9957565999999999,0.0014645376000000001,0.08641818,90,3000000000.0
97354,4.867710848440855e-07,0.0019521309,0.99579716,0.0019782998,0.08605001,90,3000000000.0
97355,4.867754734330206e-07,0.0033284965999999996,0.9958292,0.0023194812,0.08558478,90,3000000000.0
97356,4.867813236024368e-07,0.005472764000000001,0.9958705,0.0027057189,0.08475518,90,3000000000.0
97357,4.867857122228096e-07,0.007275081,0.9958982,0.0029385411,0.084001265,90,3000000000.0
97358,4.867901008491626e-07,0.009207685,0.99592155,0.003118935,0.08314801,90,3000000000.0
97359,4.867959522282921e-07,0.0119279185,0.99594367,0.0032741353,0.08188101,90,3000000000.0
97360,4.868003408422521e-07,0.014029918,0.99595284,0.0033250665000000004,0.080838084,90,3000000000.0
97361,4.868061937510667e-07,0.016847681,0.9959546999999999,0.003305621,0.079586126,90,3000000000.0
97362,4.86810582432485e-07,0.018925518,0.9959484000000001,0.003226925,0.07900599,90,3000000000.0
97363,4.868164328150435e-07,0.021583923999999997,0.99593127,0.0030406048,0.078151755,90,3000000000.0
97364,4.868208214916304e-07,0.023452868999999998,0.9959133,0.0028437856,0.07775528,90,3000000000.0
97365,4.868252102033439e-07,0.025181452000000003,0.99589247,0.0026024205,0.077623956,90,3000000000.0
97366,4.868310616564124e-07,0.0272221,0.99586225,0.0022194576,0.07731126,90,3000000000.0
97367,4.868354504213813e-07,0.02852481,0.99583995,0.0018932569,0.077591665,90,3000000000.0
97368,4.868413034870294e-07,0.029922492999999998,0.99581313,0.0014173709,0.077769086,90,3000000000.0
97369,4.868456922800653e-07,0.030697272999999997,0.9957968,0.0010379986,0.07790247,90,3000000000.0
97370,4.86850081137922e-07,0.031226825,0.99578446,0.0006464908000000001,0.07832106,90,3000000000.0
97371,4.868559317716751e-07,0.031542595,0.99577564,0.00011707383,0.07861457,90,3000000000.0
97372,4.868603207093384e-07,0.031486005,0.99577457,-0.0002772453,0.078678295,90,3000000000.0
97373,4.868661722845996e-07,0.031027173999999998,0.9957806999999999,-0.00078712194,0.07914407,90,3000000000.0
97374,4.868705611911334e-07,0.030406823,0.9957896,-0.0011498249000000001,0.07926986,90,3000000000.0
97375,4.868764145284186e-07,0.02923586,0.99580634,-0.0015965719,0.07914708599999999,90,3000000000.0
97376,4.868808034357082e-07,0.02812225,0.9958209000000001,-0.0018972554000000002,0.07915989999999999,90,3000000000.0
97377,4.868851923455999e-07,0.026829232999999997,0.9958359,-0.0021635813,0.07916140599999999,90,3000000000.0
97378,4.868910432256242e-07,0.024866762,0.9958549000000001,-0.0024587057999999997,0.078910016,90,3000000000.0
97379,4.868954321660583e-07,0.023248756000000002,0.99586684,-0.0026312198,0.078556865,90,3000000000.0
97380,4.869012837514894e-07,0.020949336000000002,0.99587846,-0.0027918876,0.07806697,90,3000000000.0
97381,4.869056727846834e-07,0.019155343999999998,0.9958829,-0.0028586523,0.07781664,90,3000000000.0
97382,4.869100618343132e-07,0.01733468,0.99588335,-0.0028787573999999997,0.07747007,90,3000000000.0
97383,4.869159153667732e-07,0.014916057,0.9958780999999999,-0.0028335429,0.07689960000000001,90,3000000000.0
97384,4.869203044137e-07,0.013147283000000001,0.9958699000000001,-0.0027470890000000003,0.07642174,90,3000000000.0
97385,4.869261554643212e-07,0.0109018395,0.99585444,-0.0025654738000000002,0.07575760000000001,90,3000000000.0
97386,4.869305445048403e-07,0.009335691,0.99584025,-0.0023829474,0.07526696,90,3000000000.0
97387,4.869363960098575e-07,0.0074505935999999995,0.99582,-0.002084315,0.07481857,90,3000000000.0
97388,4.869407850120183e-07,0.0062161646999999995,0.99580485,-0.0018240332000000001,0.07450453,90,3000000000.0
97389,4.869451739807814e-07,0.005155789,0.99579084,-0.0015376285999999999,0.07422133,90,3000000000.0
97390,4.869510274357892e-07,0.0040377984000000006,0.9957753,-0.0011234948,0.073907994,90,3000000000.0
97391,4.869554163928913e-07,0.0034361149,0.9957669,-0.0007956138000000001,0.07373424,90,3000000000.0
97392,4.869612674155817e-07,0.0029630890000000003,0.9957610999999998,-0.00034567426,0.07359899,90,3000000000.0
97393,4.869656563611872e-07,0.0028592536999999998,0.995761,-5.6956583e-06,0.07357548,90,3000000000.0
97394,4.86970045299833e-07,0.0029699034000000004,0.9957644,0.00033028497000000005,0.07361601,90,3000000000.0
97395,4.86975896559475e-07,0.0034430140000000003,0.9957741,0.0007627046000000001,0.07377145,90,3000000000.0
97396,4.869802854199541e-07,0.0040314198,0.9957844000000001,0.0010687462,0.07395721,90,3000000000.0
97397,4.86986138685357e-07,0.0051050177000000006,0.9958014999999999,0.0014433548999999999,0.07429123,90,3000000000.0
97398,4.869905274671562e-07,0.006106743,0.9958154,0.0016934375,0.07459017,90,3000000000.0
97399,4.869963783539147e-07,0.0076695936999999995,0.9958343000000001,0.0019785406,0.07504071,90,3000000000.0
97400,4.870007670903887e-07,0.008985353,0.9958475,0.0021520366,0.07540001,90,3000000000.0
